D:\Data\Install\2023-11-16\20231116-085401_La scala day--ESp_Cayman_iXPS-ESp_Cayman--1_1-Detector_Region.vms
Survey
	Characteristic Energy eV	1486.7	Acquisition Time s	0.1	Step Size eV	0.344322	No Steps	4096



KE_Survey	BE_Survey	Background_Survey
86.7	1400	355.902
87.0443	1399.66	311.559
87.3886	1399.31	375.47
87.733	1398.97	318.718
88.0773	1398.62	366.061
88.4216	1398.28	365.795
88.7659	1397.93	378.85
89.1103	1397.59	295.852
89.4546	1397.25	390.513
89.7989	1396.9	323.76
90.1432	1396.56	320.129
90.4875	1396.21	363.175
90.8319	1395.87	387.129
91.1762	1395.52	292.543
91.5205	1395.18	399.052
91.8648	1394.84	343.928
92.2092	1394.49	316.143
92.5535	1394.15	266.888
92.8978	1393.8	406.925
93.2421	1393.46	367.267
93.5864	1393.11	323.903
93.9308	1392.77	346.702
94.2751	1392.42	258.175
94.6194	1392.08	326.114
94.9637	1391.74	359.303
95.3081	1391.39	461.898
95.6524	1391.05	358.973
95.9967	1390.7	344.838
96.341	1390.36	327.671
96.6853	1390.01	333.444
97.0297	1389.67	371.147
97.374	1389.33	347.415
97.7183	1388.98	400.032
98.0626	1388.64	430.418
98.407	1388.29	357.721
98.7513	1387.95	356.286
99.0956	1387.6	276.539
99.4399	1387.26	356.171
99.7842	1386.92	342.613
100.129	1386.57	334.651
100.473	1386.23	308.46
100.817	1385.88	357.688
101.162	1385.54	358.537
101.506	1385.19	407.037
101.85	1384.85	404.646
102.195	1384.51	341.259
102.539	1384.16	421.85
102.883	1383.82	394.235
103.227	1383.47	397.84
103.572	1383.13	449.398
103.916	1382.78	443.84
104.26	1382.44	458.514
104.605	1382.1	373.472
104.949	1381.75	443.308
105.293	1381.41	443.949
105.638	1381.06	445.2
105.982	1380.72	466.609
106.326	1380.37	429.744
106.671	1380.03	462.253
107.015	1379.68	390.666
107.359	1379.34	341.971
107.704	1379	401.274
108.048	1378.65	354.048
108.392	1378.31	397.192
108.737	1377.96	470.53
109.081	1377.62	426.444
109.425	1377.27	334.467
109.77	1376.93	493.142
110.114	1376.59	442.039
110.458	1376.24	478.254
110.803	1375.9	503.129
111.147	1375.55	486.905
111.491	1375.21	567.129
111.836	1374.86	383.42
112.18	1374.52	411.329
112.524	1374.18	415.899
112.868	1373.83	414.18
113.213	1373.49	436.728
113.557	1373.14	481.503
113.901	1372.8	509.674
114.246	1372.45	377.528
114.59	1372.11	389.151
114.934	1371.77	439.38
115.279	1371.42	463.077
115.623	1371.08	472.791
115.967	1370.73	403.688
116.312	1370.39	520.947
116.656	1370.04	516.62
117	1369.7	506.559
117.345	1369.36	416.576
117.689	1369.01	449.815
118.033	1368.67	396.022
118.378	1368.32	439.469
118.722	1367.98	445.648
119.066	1367.63	482.358
119.411	1367.29	495.976
119.755	1366.95	385.802
120.099	1366.6	521.944
120.444	1366.26	460.897
120.788	1365.91	418.018
121.132	1365.57	447.58
121.477	1365.22	456.579
121.821	1364.88	486.626
122.165	1364.53	428.715
122.51	1364.19	475.952
122.854	1363.85	491.532
123.198	1363.5	446.897
123.542	1363.16	429.721
123.887	1362.81	450.666
124.231	1362.47	544.121
124.575	1362.12	511.811
124.92	1361.78	601.677
125.264	1361.44	567.899
125.608	1361.09	537.34
125.953	1360.75	509.527
126.297	1360.4	494.835
126.641	1360.06	523.642
126.986	1359.71	535.863
127.33	1359.37	621.806
127.674	1359.03	631.663
128.019	1358.68	619.671
128.363	1358.34	640.458
128.707	1357.99	542.692
129.052	1357.65	512.494
129.396	1357.3	645.256
129.74	1356.96	581.514
130.085	1356.62	606.318
130.429	1356.27	671.203
130.773	1355.93	676.962
131.118	1355.58	646.551
131.462	1355.24	573.003
131.806	1354.89	554.21
132.151	1354.55	630.526
132.495	1354.21	746.607
132.839	1353.86	626.959
133.184	1353.52	571.364
133.528	1353.17	700.849
133.872	1352.83	576.78
134.216	1352.48	533.378
134.561	1352.14	658.602
134.905	1351.79	567.023
135.249	1351.45	649.701
135.594	1351.11	691.676
135.938	1350.76	619.596
136.282	1350.42	701.611
136.627	1350.07	720.042
136.971	1349.73	587.744
137.315	1349.38	735.644
137.66	1349.04	632.502
138.004	1348.7	641.646
138.348	1348.35	762.293
138.693	1348.01	630.179
139.037	1347.66	701.422
139.381	1347.32	701.549
139.726	1346.97	689.672
140.07	1346.63	636.384
140.414	1346.29	756.778
140.759	1345.94	655.159
141.103	1345.6	696.654
141.447	1345.25	675.069
141.792	1344.91	706.888
142.136	1344.56	808.451
142.48	1344.22	820.012
142.825	1343.88	697.556
143.169	1343.53	728.495
143.513	1343.19	666.451
143.858	1342.84	672.563
144.202	1342.5	720.148
144.546	1342.15	713.29
144.89	1341.81	675
145.235	1341.47	816.306
145.579	1341.12	756.551
145.923	1340.78	644.245
146.268	1340.43	643.54
146.612	1340.09	789.095
146.956	1339.74	722.668
147.301	1339.4	540.721
147.645	1339.05	778.927
147.989	1338.71	726.996
148.334	1338.37	798.313
148.678	1338.02	675.753
149.022	1337.68	707.817
149.367	1337.33	718.259
149.711	1336.99	732.447
150.055	1336.64	665.6
150.4	1336.3	688.114
150.744	1335.96	727.459
151.088	1335.61	584.699
151.433	1335.27	620.915
151.777	1334.92	733.142
152.121	1334.58	838.796
152.466	1334.23	793.118
152.81	1333.89	772.403
153.154	1333.55	720.089
153.499	1333.2	747.287
153.843	1332.86	717.489
154.187	1332.51	729.887
154.532	1332.17	780.037
154.876	1331.82	788.596
155.22	1331.48	740.938
155.564	1331.14	887.823
155.909	1330.79	782.132
156.253	1330.45	682.958
156.597	1330.1	855.383
156.942	1329.76	844.138
157.286	1329.41	859.377
157.63	1329.07	825.366
157.975	1328.73	852.5
158.319	1328.38	876.041
158.663	1328.04	720.601
159.008	1327.69	861.216
159.352	1327.35	1013.23
159.696	1327	851.958
160.041	1326.66	966.341
160.385	1326.32	918.057
160.729	1325.97	841.53
161.074	1325.63	869.097
161.418	1325.28	898.758
161.762	1324.94	757.872
162.107	1324.59	903.304
162.451	1324.25	873.594
162.795	1323.9	824.872
163.14	1323.56	719.93
163.484	1323.22	949.519
163.828	1322.87	899.018
164.173	1322.53	969.942
164.517	1322.18	801.613
164.861	1321.84	777.599
165.205	1321.49	902.291
165.55	1321.15	861.905
165.894	1320.81	847.93
166.238	1320.46	836.601
166.583	1320.12	881.41
166.927	1319.77	879.697
167.271	1319.43	884.454
167.616	1319.08	876.8
167.96	1318.74	919.335
168.304	1318.4	933.228
168.649	1318.05	955.481
168.993	1317.71	825.719
169.337	1317.36	832.676
169.682	1317.02	952.418
170.026	1316.67	882.14
170.37	1316.33	936.832
170.715	1315.99	876.725
171.059	1315.64	896.016
171.403	1315.3	844.347
171.748	1314.95	891.372
172.092	1314.61	960.36
172.436	1314.26	1062.97
172.781	1313.92	1067.33
173.125	1313.58	911.413
173.469	1313.23	1139.95
173.814	1312.89	894.622
174.158	1312.54	917.378
174.502	1312.2	865.471
174.847	1311.85	889.568
175.191	1311.51	911.511
175.535	1311.16	840.488
175.879	1310.82	915.577
176.224	1310.48	1063.2
176.568	1310.13	994.394
176.912	1309.79	899.056
177.257	1309.44	929.361
177.601	1309.1	971.264
177.945	1308.75	926.725
178.29	1308.41	967.539
178.634	1308.07	1038.21
178.978	1307.72	1014.2
179.323	1307.38	1050.7
179.667	1307.03	1018.01
180.011	1306.69	1038.92
180.356	1306.34	1076.73
180.7	1306	1087.28
181.044	1305.66	1107.92
181.389	1305.31	1086
181.733	1304.97	1163.77
182.077	1304.62	1117.07
182.422	1304.28	1013.36
182.766	1303.93	1074.91
183.11	1303.59	1083
183.455	1303.25	981.895
183.799	1302.9	1090.69
184.143	1302.56	1076.52
184.488	1302.21	1150.34
184.832	1301.87	1210.75
185.176	1301.52	1028.7
185.521	1301.18	1022.54
185.865	1300.84	1036.34
186.209	1300.49	1051.01
186.553	1300.15	1236.69
186.898	1299.8	1162.48
187.242	1299.46	1144.62
187.586	1299.11	1098.71
187.931	1298.77	1216.05
188.275	1298.42	1044.66
188.619	1298.08	1181.04
188.964	1297.74	1206.47
189.308	1297.39	1118
189.652	1297.05	1119.39
189.997	1296.7	1109.39
190.341	1296.36	1194.86
190.685	1296.01	1052.2
191.03	1295.67	1163.29
191.374	1295.33	1121.86
191.718	1294.98	1031.64
192.063	1294.64	1055.17
192.407	1294.29	1143.54
192.751	1293.95	1250.71
193.096	1293.6	1156.95
193.44	1293.26	1253.88
193.784	1292.92	1195.98
194.129	1292.57	1351
194.473	1292.23	1037.23
194.817	1291.88	1093.93
195.162	1291.54	1025.27
195.506	1291.19	1377.23
195.85	1290.85	1290
196.195	1290.51	1349.88
196.539	1290.16	1327.72
196.883	1289.82	1156.99
197.227	1289.47	1316.3
197.572	1289.13	1402.08
197.916	1288.78	1186.3
198.26	1288.44	1301.9
198.605	1288.1	1391.37
198.949	1287.75	1414.42
199.293	1287.41	1373.57
199.638	1287.06	1379.27
199.982	1286.72	1320.69
200.326	1286.37	1262.69
200.671	1286.03	1280.96
201.015	1285.68	1189.09
201.359	1285.34	1199.03
201.704	1285	1279.56
202.048	1284.65	1340.58
202.392	1284.31	1215.41
202.737	1283.96	1288.68
203.081	1283.62	1362.04
203.425	1283.27	1464.99
203.77	1282.93	1514.6
204.114	1282.59	1519.76
204.458	1282.24	1281.13
204.803	1281.9	1349.25
205.147	1281.55	1565.12
205.491	1281.21	1409.33
205.836	1280.86	1394.66
206.18	1280.52	1482.78
206.524	1280.18	1306.1
206.868	1279.83	1489.78
207.213	1279.49	1452.56
207.557	1279.14	1496.41
207.901	1278.8	1318.77
208.246	1278.45	1371.01
208.59	1278.11	1502.62
208.934	1277.77	1393.97
209.279	1277.42	1383.58
209.623	1277.08	1381.14
209.967	1276.73	1528.48
210.312	1276.39	1479.36
210.656	1276.04	1518.61
211	1275.7	1571.72
211.345	1275.36	1521.23
211.689	1275.01	1422.64
212.033	1274.67	1341.44
212.378	1274.32	1462.29
212.722	1273.98	1367.27
213.066	1273.63	1684.49
213.411	1273.29	1609.54
213.755	1272.95	1490.14
214.099	1272.6	1495.13
214.444	1272.26	1646.89
214.788	1271.91	1661.2
215.132	1271.57	1527.6
215.477	1271.22	1769.75
215.821	1270.88	1485.56
216.165	1270.53	1574.27
216.51	1270.19	1429.12
216.854	1269.85	1617.6
217.198	1269.5	1684.64
217.542	1269.16	1620
217.887	1268.81	1833.8
218.231	1268.47	1694.61
218.575	1268.12	1666.41
218.92	1267.78	1736.47
219.264	1267.44	1682.24
219.608	1267.09	1643.22
219.953	1266.75	1847.84
220.297	1266.4	1699.96
220.641	1266.06	1832.21
220.986	1265.71	1802.36
221.33	1265.37	1787.94
221.674	1265.03	1961.63
222.019	1264.68	1694.72
222.363	1264.34	1727.26
222.707	1263.99	1881.01
223.052	1263.65	1860.2
223.396	1263.3	1864.6
223.74	1262.96	1803.72
224.085	1262.62	1873.85
224.429	1262.27	1851.88
224.773	1261.93	1925.92
225.118	1261.58	1702.35
225.462	1261.24	1960.48
225.806	1260.89	1921.18
226.151	1260.55	1743.11
226.495	1260.21	1669.56
226.839	1259.86	1721.42
227.184	1259.52	1634.72
227.528	1259.17	1751.71
227.872	1258.83	1702.17
228.216	1258.48	1757.69
228.561	1258.14	1746.32
228.905	1257.79	1647.2
229.249	1257.45	1702.52
229.594	1257.11	1738.09
229.938	1256.76	1668.86
230.282	1256.42	1757.92
230.627	1256.07	1844.16
230.971	1255.73	1750.97
231.315	1255.38	1803.51
231.66	1255.04	1805.81
232.004	1254.7	1565.62
232.348	1254.35	1612.33
232.693	1254.01	1563.41
233.037	1253.66	1651.09
233.381	1253.32	1636.14
233.726	1252.97	1667.12
234.07	1252.63	1880.33
234.414	1252.29	1845.25
234.759	1251.94	1663.09
235.103	1251.6	1844.69
235.447	1251.25	1719.25
235.792	1250.91	1621.14
236.136	1250.56	1738.15
236.48	1250.22	1757.86
236.825	1249.88	1711.08
237.169	1249.53	1671
237.513	1249.19	1723.66
237.858	1248.84	1753
238.202	1248.5	1899.38
238.546	1248.15	1848.7
238.89	1247.81	1754.92
239.235	1247.47	1913.31
239.579	1247.12	1910.09
239.923	1246.78	1952.71
240.268	1246.43	1910.09
240.612	1246.09	1881.84
240.956	1245.74	1884.35
241.301	1245.4	1930.48
241.645	1245.05	1964.73
241.989	1244.71	1921.01
242.334	1244.37	1953.8
242.678	1244.02	2048.9
243.022	1243.68	1898.84
243.367	1243.33	2010.11
243.711	1242.99	1894.95
244.055	1242.64	2011.34
244.4	1242.3	2004.18
244.744	1241.96	2075.78
245.088	1241.61	2268.15
245.433	1241.27	2205.59
245.777	1240.92	2033.71
246.121	1240.58	2051.32
246.466	1240.23	2182.3
246.81	1239.89	2323.68
247.154	1239.55	2318.31
247.499	1239.2	2256.26
247.843	1238.86	2312.97
248.187	1238.51	2350.54
248.532	1238.17	1983.47
248.876	1237.82	2528.55
249.22	1237.48	2597.93
249.564	1237.14	2314.54
249.909	1236.79	2797.89
250.253	1236.45	2488.27
250.597	1236.1	2404.39
250.942	1235.76	2595.02
251.286	1235.41	2668.59
251.63	1235.07	2300.04
251.975	1234.73	2413.73
252.319	1234.38	2756.03
252.663	1234.04	2734.96
253.008	1233.69	2598.21
253.352	1233.35	2504.85
253.696	1233	2693.04
254.041	1232.66	2363.41
254.385	1232.32	2469.42
254.729	1231.97	2549.88
255.074	1231.63	2698.84
255.418	1231.28	2858.72
255.762	1230.94	2934.2
256.107	1230.59	2612.95
256.451	1230.25	2785.96
256.795	1229.9	2806.06
257.14	1229.56	2398.4
257.484	1229.22	2728.16
257.828	1228.87	2620.21
258.173	1228.53	2611.78
258.517	1228.18	2521.26
258.861	1227.84	2537.86
259.205	1227.49	2561.57
259.55	1227.15	2557.82
259.894	1226.81	2413.93
260.238	1226.46	2241.45
260.583	1226.12	2400.06
260.927	1225.77	2487.78
261.271	1225.43	2112.03
261.616	1225.08	2324.09
261.96	1224.74	2143.66
262.304	1224.4	2279.1
262.649	1224.05	2120.54
262.993	1223.71	2177.75
263.337	1223.36	1983.03
263.682	1223.02	1923.72
264.026	1222.67	2037.42
264.37	1222.33	2040.13
264.715	1221.99	1869.47
265.059	1221.64	1888.09
265.403	1221.3	1895.98
265.748	1220.95	1919.32
266.092	1220.61	1910.79
266.436	1220.26	1773.74
266.781	1219.92	1942.76
267.125	1219.58	2057.92
267.469	1219.23	1906.27
267.814	1218.89	2018.67
268.158	1218.54	1938.37
268.502	1218.2	1802.41
268.847	1217.85	2019.43
269.191	1217.51	2011.13
269.535	1217.16	2054.77
269.879	1216.82	2106.96
270.224	1216.48	1899.47
270.568	1216.13	1978.74
270.912	1215.79	1949.84
271.257	1215.44	2042.38
271.601	1215.1	1885.49
271.945	1214.75	2013.63
272.29	1214.41	1966.57
272.634	1214.07	1997.6
272.978	1213.72	1887.59
273.323	1213.38	1996.21
273.667	1213.03	1881.23
274.011	1212.69	2027.31
274.356	1212.34	1966.03
274.7	1212	2154.07
275.044	1211.66	1961.58
275.389	1211.31	1933.07
275.733	1210.97	1895.25
276.077	1210.62	1993.27
276.422	1210.28	2086.95
276.766	1209.93	1954.72
277.11	1209.59	2131.67
277.455	1209.25	2060.36
277.799	1208.9	2063.78
278.143	1208.56	1951.6
278.488	1208.21	1991.07
278.832	1207.87	1778.89
279.176	1207.52	2009.77
279.521	1207.18	1938.71
279.865	1206.84	2019.29
280.209	1206.49	2083.55
280.553	1206.15	1919.92
280.898	1205.8	1992.25
281.242	1205.46	2100.91
281.586	1205.11	2042.92
281.931	1204.77	2067.88
282.275	1204.42	2102.5
282.619	1204.08	2110.54
282.964	1203.74	2079.58
283.308	1203.39	2011.8
283.652	1203.05	2082.08
283.997	1202.7	1975.02
284.341	1202.36	2141.04
284.685	1202.01	2103.99
285.03	1201.67	2030.2
285.374	1201.33	2188.04
285.718	1200.98	2047.52
286.063	1200.64	2112.92
286.407	1200.29	2095.2
286.751	1199.95	2132.08
287.096	1199.6	2321.92
287.44	1199.26	2207.89
287.784	1198.92	2225.85
288.129	1198.57	2324.15
288.473	1198.23	2398.42
288.817	1197.88	2380.02
289.162	1197.54	2117.39
289.506	1197.19	2297.18
289.85	1196.85	2467.03
290.195	1196.51	2394.14
290.539	1196.16	2325.09
290.883	1195.82	2302.19
291.227	1195.47	2357.47
291.572	1195.13	2418.31
291.916	1194.78	2389.24
292.26	1194.44	2557.48
292.605	1194.1	2532.03
292.949	1193.75	2242.16
293.293	1193.41	2484.86
293.638	1193.06	2586.26
293.982	1192.72	2627.69
294.326	1192.37	2753.93
294.671	1192.03	2844.31
295.015	1191.68	2801.6
295.359	1191.34	2886.08
295.704	1191	3062.43
296.048	1190.65	2983.68
296.392	1190.31	3042.29
296.737	1189.96	2824.36
297.081	1189.62	2914.42
297.425	1189.27	3740.93
297.77	1188.93	3799.45
298.114	1188.59	3816.68
298.458	1188.24	4104.62
298.803	1187.9	4457.4
299.147	1187.55	4392.77
299.491	1187.21	4897.85
299.836	1186.86	5014.36
300.18	1186.52	5525.42
300.524	1186.18	5416.43
300.868	1185.83	5081.87
301.213	1185.49	5624.39
301.557	1185.14	5792.94
301.901	1184.8	6145.39
302.246	1184.45	5591.25
302.59	1184.11	5474.78
302.934	1183.77	5899.88
303.279	1183.42	5365.91
303.623	1183.08	5560.08
303.967	1182.73	5200.53
304.312	1182.39	4844.19
304.656	1182.04	4769.9
305	1181.7	4470.85
305.345	1181.36	4174.31
305.689	1181.01	3835.69
306.033	1180.67	3626.5
306.378	1180.32	3224.63
306.722	1179.98	2807.71
307.066	1179.63	2727.47
307.411	1179.29	2726.53
307.755	1178.95	2828.17
308.099	1178.6	2531.3
308.444	1178.26	2352.33
308.788	1177.91	2228.91
309.132	1177.57	2258.7
309.477	1177.22	2191.06
309.821	1176.88	2058.81
310.165	1176.53	2379.47
310.51	1176.19	2521.44
310.854	1175.85	2016.29
311.198	1175.5	1935.49
311.542	1175.16	2082.89
311.887	1174.81	2128.84
312.231	1174.47	1946.8
312.575	1174.12	1884.54
312.92	1173.78	1988.09
313.264	1173.44	1892.33
313.608	1173.09	2165.47
313.953	1172.75	1891.78
314.297	1172.4	2058.79
314.641	1172.06	2020.01
314.986	1171.71	1853.53
315.33	1171.37	2003.16
315.674	1171.03	1840.9
316.019	1170.68	1752.45
316.363	1170.34	1947.82
316.707	1169.99	1828.79
317.052	1169.65	1920.88
317.396	1169.3	1904.11
317.74	1168.96	2038.05
318.085	1168.62	2001.36
318.429	1168.27	1992.93
318.773	1167.93	1991.14
319.118	1167.58	2124.26
319.462	1167.24	2053.2
319.806	1166.89	1988.92
320.151	1166.55	1907.8
320.495	1166.21	1719.24
320.839	1165.86	1837.38
321.184	1165.52	1833.7
321.528	1165.17	1838.81
321.872	1164.83	1925.71
322.216	1164.48	1981.88
322.561	1164.14	1973.67
322.905	1163.79	1864.92
323.249	1163.45	1987.06
323.594	1163.11	1957.97
323.938	1162.76	2019.43
324.282	1162.42	1864.66
324.627	1162.07	2064.66
324.971	1161.73	2063.05
325.315	1161.38	2005.19
325.66	1161.04	1947.8
326.004	1160.7	2053.29
326.348	1160.35	1970.37
326.693	1160.01	1946.55
327.037	1159.66	1923.1
327.381	1159.32	2151.54
327.726	1158.97	2168.63
328.07	1158.63	2170.75
328.414	1158.29	2296.71
328.759	1157.94	2187.93
329.103	1157.6	2116.88
329.447	1157.25	2170.83
329.792	1156.91	2180.53
330.136	1156.56	2094.32
330.48	1156.22	2000.46
330.825	1155.88	2008.83
331.169	1155.53	1972.96
331.513	1155.19	1983.8
331.858	1154.84	2030.51
332.202	1154.5	1994.04
332.546	1154.15	2260.73
332.89	1153.81	2011.38
333.235	1153.47	1920.74
333.579	1153.12	2076.02
333.923	1152.78	2392.22
334.268	1152.43	2247.04
334.612	1152.09	2117.47
334.956	1151.74	2102.48
335.301	1151.4	2217.16
335.645	1151.05	2328.97
335.989	1150.71	2282.47
336.334	1150.37	2314.08
336.678	1150.02	1963.43
337.022	1149.68	2179.67
337.367	1149.33	2021.97
337.711	1148.99	2264.08
338.055	1148.64	2108.86
338.4	1148.3	2075.21
338.744	1147.96	2202.23
339.088	1147.61	2201.69
339.433	1147.27	2127.05
339.777	1146.92	2143.51
340.121	1146.58	2376.13
340.466	1146.23	2195.69
340.81	1145.89	2290.14
341.154	1145.55	2259.66
341.499	1145.2	2153.26
341.843	1144.86	2441.98
342.187	1144.51	2070.34
342.532	1144.17	2130.7
342.876	1143.82	2317.5
343.22	1143.48	2322.59
343.564	1143.14	2175.4
343.909	1142.79	2078.27
344.253	1142.45	2277.61
344.597	1142.1	2211.11
344.942	1141.76	2217.26
345.286	1141.41	2313.91
345.63	1141.07	2194.33
345.975	1140.73	2412.11
346.319	1140.38	2385.35
346.663	1140.04	2337.66
347.008	1139.69	2418.84
347.352	1139.35	2450.42
347.696	1139	2334.05
348.041	1138.66	2285.65
348.385	1138.32	2280.39
348.729	1137.97	2431.66
349.074	1137.63	2140.41
349.418	1137.28	2238.09
349.762	1136.94	2302.11
350.107	1136.59	2225.56
350.451	1136.25	2215.27
350.795	1135.9	2049.12
351.14	1135.56	2437.45
351.484	1135.22	2398.47
351.828	1134.87	2205.22
352.173	1134.53	2533.59
352.517	1134.18	2649.62
352.861	1133.84	2513.04
353.205	1133.49	2405.46
353.55	1133.15	2596.31
353.894	1132.81	2508.59
354.238	1132.46	2317.42
354.583	1132.12	2286.41
354.927	1131.77	2542.09
355.271	1131.43	2710.71
355.616	1131.08	2204.84
355.96	1130.74	2223.83
356.304	1130.4	2431.67
356.649	1130.05	2579.37
356.993	1129.71	2532.5
357.337	1129.36	2700.72
357.682	1129.02	2396.51
358.026	1128.67	2410
358.37	1128.33	2541.99
358.715	1127.99	2437.54
359.059	1127.64	2458.29
359.403	1127.3	2627.12
359.748	1126.95	2624.16
360.092	1126.61	2517.76
360.436	1126.26	2502.05
360.781	1125.92	2541.27
361.125	1125.58	2486.77
361.469	1125.23	2351.92
361.814	1124.89	2555.22
362.158	1124.54	2472.47
362.502	1124.2	2589.54
362.847	1123.85	2805
363.191	1123.51	2704.04
363.535	1123.16	2784.8
363.879	1122.82	2668.73
364.224	1122.48	2690.2
364.568	1122.13	2736.46
364.912	1121.79	2660.58
365.257	1121.44	2659.55
365.601	1121.1	2530.83
365.945	1120.75	2486.18
366.29	1120.41	2429.65
366.634	1120.07	2620.19
366.978	1119.72	2603.35
367.323	1119.38	2489.53
367.667	1119.03	2601.49
368.011	1118.69	2591.84
368.356	1118.34	2412.99
368.7	1118	2589.2
369.044	1117.66	2550.21
369.389	1117.31	2665.38
369.733	1116.97	2501.57
370.077	1116.62	2565.49
370.422	1116.28	2728.74
370.766	1115.93	2624.98
371.11	1115.59	2889.13
371.455	1115.25	2738.23
371.799	1114.9	2621.96
372.143	1114.56	2429.25
372.488	1114.21	2542.02
372.832	1113.87	2610.79
373.176	1113.52	2645.23
373.521	1113.18	2703.45
373.865	1112.84	2587.56
374.209	1112.49	2672.61
374.553	1112.15	2707.97
374.898	1111.8	2607.32
375.242	1111.46	2956.51
375.586	1111.11	2860.68
375.931	1110.77	2779.53
376.275	1110.42	2743.95
376.619	1110.08	2784.83
376.964	1109.74	2927.39
377.308	1109.39	2829.9
377.652	1109.05	2890.19
377.997	1108.7	2888.2
378.341	1108.36	2879.25
378.685	1108.01	2773.73
379.03	1107.67	2663.14
379.374	1107.33	2638.21
379.718	1106.98	2622.38
380.063	1106.64	2574.48
380.407	1106.29	2813.53
380.751	1105.95	2816.58
381.096	1105.6	2861.96
381.44	1105.26	2893.53
381.784	1104.92	3065.43
382.129	1104.57	2750.79
382.473	1104.23	3089.25
382.817	1103.88	3086.39
383.162	1103.54	2901.2
383.506	1103.19	2886.04
383.85	1102.85	2993.96
384.195	1102.51	2914.47
384.539	1102.16	2977.04
384.883	1101.82	3071.36
385.227	1101.47	2945.43
385.572	1101.13	2956.47
385.916	1100.78	3171.5
386.26	1100.44	2965.38
386.605	1100.1	3037.91
386.949	1099.75	3128.17
387.293	1099.41	2862.72
387.638	1099.06	2895.95
387.982	1098.72	3018.08
388.326	1098.37	2991.43
388.671	1098.03	3073.4
389.015	1097.68	2969.13
389.359	1097.34	2756.92
389.704	1097	3043.76
390.048	1096.65	3055.79
390.392	1096.31	3132.17
390.737	1095.96	3144.14
391.081	1095.62	2818.78
391.425	1095.27	3045.77
391.77	1094.93	3275.59
392.114	1094.59	2648.64
392.458	1094.24	2820.69
392.803	1093.9	2819.33
393.147	1093.55	3152.34
393.491	1093.21	3305.16
393.836	1092.86	3187.54
394.18	1092.52	3090.33
394.524	1092.18	2890.63
394.868	1091.83	3098.99
395.213	1091.49	3165.66
395.557	1091.14	3137.17
395.901	1090.8	3125.17
396.246	1090.45	3192.76
396.59	1090.11	3244.91
396.934	1089.77	2930.92
397.279	1089.42	2931.85
397.623	1089.08	3138.54
397.967	1088.73	3227.79
398.312	1088.39	3032
398.656	1088.04	3062.86
399	1087.7	3217.13
399.345	1087.36	3237.65
399.689	1087.01	3175.02
400.033	1086.67	3021.88
400.378	1086.32	3081.3
400.722	1085.98	3050.9
401.066	1085.63	3012.31
401.411	1085.29	3112.62
401.755	1084.95	3521.36
402.099	1084.6	3206.93
402.444	1084.26	3204.46
402.788	1083.91	3268.25
403.132	1083.57	3113.54
403.477	1083.22	3072.85
403.821	1082.88	3254.32
404.165	1082.53	3196.74
404.51	1082.19	3033.12
404.854	1081.85	3321.88
405.198	1081.5	3285.23
405.542	1081.16	3384.05
405.887	1080.81	3287.58
406.231	1080.47	3202.46
406.575	1080.12	3074.38
406.92	1079.78	3300.24
407.264	1079.44	3350.72
407.608	1079.09	3349.31
407.953	1078.75	3182.18
408.297	1078.4	3417.27
408.641	1078.06	3342.26
408.986	1077.71	3358.01
409.33	1077.37	3486.68
409.674	1077.03	3149.18
410.019	1076.68	3335
410.363	1076.34	3311.6
410.707	1075.99	3309.32
411.052	1075.65	3431.08
411.396	1075.3	3134.36
411.74	1074.96	3275.49
412.085	1074.62	3410.1
412.429	1074.27	3255.4
412.773	1073.93	3482.1
413.118	1073.58	3554.07
413.462	1073.24	3334.71
413.806	1072.89	3598.96
414.151	1072.55	3317.32
414.495	1072.21	3229.94
414.839	1071.86	3178.69
415.184	1071.52	3413.19
415.528	1071.17	3536.06
415.872	1070.83	3194.92
416.216	1070.48	3449.92
416.561	1070.14	3258.53
416.905	1069.79	3292.99
417.249	1069.45	3601.44
417.594	1069.11	3547.39
417.938	1068.76	3384.46
418.282	1068.42	3362.73
418.627	1068.07	3180.88
418.971	1067.73	3378.99
419.315	1067.38	3321.57
419.66	1067.04	3216.06
420.004	1066.7	3549.77
420.348	1066.35	3517.98
420.693	1066.01	3524.87
421.037	1065.66	3304.98
421.381	1065.32	3291.7
421.726	1064.97	3544.25
422.07	1064.63	3303.39
422.414	1064.29	3367.49
422.759	1063.94	3419.23
423.103	1063.6	3533.49
423.447	1063.25	3480.14
423.792	1062.91	3574.98
424.136	1062.56	3444.57
424.48	1062.22	3447.1
424.825	1061.88	3587.37
425.169	1061.53	3803.67
425.513	1061.19	3538.44
425.858	1060.84	3531.67
426.202	1060.5	3606.32
426.546	1060.15	3480.68
426.89	1059.81	3405.11
427.235	1059.47	3656.24
427.579	1059.12	3761.87
427.923	1058.78	3502.5
428.268	1058.43	3497.4
428.612	1058.09	3756.91
428.956	1057.74	3704.58
429.301	1057.4	3602.6
429.645	1057.05	3588.2
429.989	1056.71	3390.64
430.334	1056.37	3588.06
430.678	1056.02	3422
431.022	1055.68	3518.04
431.367	1055.33	3690.78
431.711	1054.99	3558.3
432.055	1054.64	3467.2
432.4	1054.3	3636.53
432.744	1053.96	3728.13
433.088	1053.61	3674.53
433.433	1053.27	3591.26
433.777	1052.92	3901.39
434.121	1052.58	3523.04
434.466	1052.23	4032.3
434.81	1051.89	3970.67
435.154	1051.55	3866.16
435.499	1051.2	3986.96
435.843	1050.86	4017.83
436.187	1050.51	3869.35
436.532	1050.17	3663.02
436.876	1049.82	3855.89
437.22	1049.48	3792.16
437.564	1049.14	3873.39
437.909	1048.79	4084.94
438.253	1048.45	3759.11
438.597	1048.1	3964.11
438.942	1047.76	3936.45
439.286	1047.41	3606.98
439.63	1047.07	3623.64
439.975	1046.73	3732.23
440.319	1046.38	3872.02
440.663	1046.04	3804.89
441.008	1045.69	4190.06
441.352	1045.35	3951.38
441.696	1045	3873.52
442.041	1044.66	4021.8
442.385	1044.32	3688.69
442.729	1043.97	3846.45
443.074	1043.63	4102.21
443.418	1043.28	4049.88
443.762	1042.94	3962.14
444.107	1042.59	3720.68
444.451	1042.25	4049.98
444.795	1041.9	3996.44
445.14	1041.56	4049.87
445.484	1041.22	4263.43
445.828	1040.87	4138.94
446.173	1040.53	4037.19
446.517	1040.18	3996.19
446.861	1039.84	3989.08
447.205	1039.49	4323.13
447.55	1039.15	3899.55
447.894	1038.81	3936.58
448.238	1038.46	3952.45
448.583	1038.12	4097.66
448.927	1037.77	4018.23
449.271	1037.43	4054.6
449.616	1037.08	4098.67
449.96	1036.74	4030.75
450.304	1036.4	4078.85
450.649	1036.05	4231.43
450.993	1035.71	4036.93
451.337	1035.36	3938.85
451.682	1035.02	4077
452.026	1034.67	3985.99
452.37	1034.33	4019.12
452.715	1033.99	4178.31
453.059	1033.64	4150.44
453.403	1033.3	4172.49
453.748	1032.95	4233.26
454.092	1032.61	4085.01
454.436	1032.26	3969.79
454.781	1031.92	3932.87
455.125	1031.58	4035.68
455.469	1031.23	3889.41
455.814	1030.89	4242.74
456.158	1030.54	4239.95
456.502	1030.2	3990.41
456.847	1029.85	4212.15
457.191	1029.51	4285.18
457.535	1029.16	4329.38
457.879	1028.82	4113.98
458.224	1028.48	4139.99
458.568	1028.13	4063.33
458.912	1027.79	3975.28
459.257	1027.44	4260.06
459.601	1027.1	4319.31
459.945	1026.75	4210.24
460.29	1026.41	4001.89
460.634	1026.07	4295.89
460.978	1025.72	4160.35
461.323	1025.38	4086.24
461.667	1025.03	4229.4
462.011	1024.69	4350.91
462.356	1024.34	4034.61
462.7	1024	4391.08
463.044	1023.66	4529.84
463.389	1023.31	4205.41
463.733	1022.97	4248.98
464.077	1022.62	4250.73
464.422	1022.28	4340.61
464.766	1021.93	4400.72
465.11	1021.59	4727.36
465.455	1021.25	4358.98
465.799	1020.9	4187.78
466.143	1020.56	4088.4
466.488	1020.21	4121.69
466.832	1019.87	4192.04
467.176	1019.52	4116.64
467.521	1019.18	4325.46
467.865	1018.84	4366.64
468.209	1018.49	4537.14
468.553	1018.15	4640.57
468.898	1017.8	4028.25
469.242	1017.46	4354.54
469.586	1017.11	4106.64
469.931	1016.77	4185.57
470.275	1016.42	4297.53
470.619	1016.08	4236.21
470.964	1015.74	4454.6
471.308	1015.39	4232.63
471.652	1015.05	4063.01
471.997	1014.7	4166.5
472.341	1014.36	4059.59
472.685	1014.01	4317.56
473.03	1013.67	4273.63
473.374	1013.33	4395.59
473.718	1012.98	4605.24
474.063	1012.64	4279.33
474.407	1012.29	4380.62
474.751	1011.95	4280.96
475.096	1011.6	4218.27
475.44	1011.26	4231.3
475.784	1010.92	4431.18
476.129	1010.57	4037.93
476.473	1010.23	4182.95
476.817	1009.88	4350.56
477.162	1009.54	4133.65
477.506	1009.19	4567.58
477.85	1008.85	4542.6
478.195	1008.51	4512.14
478.539	1008.16	4571.75
478.883	1007.82	4248.61
479.227	1007.47	4242.52
479.572	1007.13	4780.1
479.916	1006.78	4379.59
480.26	1006.44	4326.5
480.605	1006.1	4270.79
480.949	1005.75	4420.51
481.293	1005.41	4341.23
481.638	1005.06	4598.61
481.982	1004.72	4421.57
482.326	1004.37	4713.73
482.671	1004.03	4679.85
483.015	1003.68	4149.07
483.359	1003.34	4362.14
483.704	1003	4637.68
484.048	1002.65	4486.1
484.392	1002.31	4766.87
484.737	1001.96	4597.54
485.081	1001.62	4441.59
485.425	1001.27	4812.05
485.77	1000.93	4470.2
486.114	1000.59	4668.08
486.458	1000.24	4820.93
486.803	999.897	4528.13
487.147	999.553	4528.13
487.491	999.209	4317.45
487.836	998.864	4500.65
488.18	998.52	4950.63
488.524	998.176	4690.45
488.868	997.832	4846.21
489.213	997.487	4930.08
489.557	997.143	4849.37
489.901	996.799	4753.6
490.246	996.454	4270.44
490.59	996.11	4739.29
490.934	995.766	4660.56
491.279	995.421	4622.43
491.623	995.077	4628.21
491.967	994.733	4718.78
492.312	994.388	4824.16
492.656	994.044	4543.21
493	993.7	4609.58
493.345	993.355	5075.58
493.689	993.011	4531.75
494.033	992.667	4712.64
494.378	992.322	4731.95
494.722	991.978	4670.94
495.066	991.634	4935.99
495.411	991.289	4749.96
495.755	990.945	4845.64
496.099	990.601	5046.12
496.444	990.256	4790.25
496.788	989.912	4805.29
497.132	989.568	4897.93
497.477	989.223	4924.16
497.821	988.879	4989.68
498.165	988.535	4885.21
498.51	988.19	4644.58
498.854	987.846	4927.79
499.198	987.502	4910.18
499.542	987.158	4803.62
499.887	986.813	4890.43
500.231	986.469	4827.88
500.575	986.125	4838.94
500.92	985.78	4786.73
501.264	985.436	4941.78
501.608	985.092	5107.94
501.953	984.747	4958.01
502.297	984.403	5097.63
502.641	984.059	4935.01
502.986	983.714	4922.61
503.33	983.37	4857.65
503.674	983.026	5198.69
504.019	982.681	5009.75
504.363	982.337	4876.85
504.707	981.993	4898.78
505.052	981.648	5389.16
505.396	981.304	5067.35
505.74	980.96	5122.64
506.085	980.615	5362.1
506.429	980.271	4889.55
506.773	979.927	5252.08
507.118	979.582	5264.24
507.462	979.238	5170.15
507.806	978.894	5302.21
508.151	978.549	5060.18
508.495	978.205	5095.75
508.839	977.861	5231.66
509.184	977.516	5197.28
509.528	977.172	5114.23
509.872	976.828	4961.78
510.216	976.484	4919.42
510.561	976.139	4931.37
510.905	975.795	5164.74
511.249	975.451	5282.68
511.594	975.106	5105.95
511.938	974.762	5403.27
512.282	974.418	5041.44
512.627	974.073	5289.36
512.971	973.729	5056.87
513.315	973.385	5247.04
513.66	973.04	5402.4
514.004	972.696	5161.01
514.348	972.352	5112.8
514.693	972.007	5156.21
515.037	971.663	5095.73
515.381	971.319	5185.31
515.726	970.974	4972.8
516.07	970.63	5295.56
516.414	970.286	5307.88
516.759	969.941	5291.85
517.103	969.597	5186.87
517.447	969.253	5473.44
517.792	968.908	5667.17
518.136	968.564	5161.31
518.48	968.22	5441.48
518.825	967.875	5333.7
519.169	967.531	5605.93
519.513	967.187	5409.1
519.858	966.842	5339.21
520.202	966.498	5689.57
520.546	966.154	5415.92
520.89	965.81	5322.85
521.235	965.465	5432.53
521.579	965.121	5838.71
521.923	964.777	5451.5
522.268	964.432	5451.1
522.612	964.088	5455.27
522.956	963.744	5327.08
523.301	963.399	5209.49
523.645	963.055	5276.85
523.989	962.711	5369.83
524.334	962.366	5479.18
524.678	962.022	5348.53
525.022	961.678	5430.05
525.367	961.333	5299.12
525.711	960.989	5715.55
526.055	960.645	5584.05
526.4	960.3	5540.63
526.744	959.956	5452.69
527.088	959.612	5241.83
527.433	959.267	5535.99
527.777	958.923	5357.36
528.121	958.579	5484.7
528.466	958.234	5312.38
528.81	957.89	5727.43
529.154	957.546	5600.02
529.499	957.201	5535.11
529.843	956.857	5709.2
530.187	956.513	5338.89
530.532	956.168	5840.22
530.876	955.824	5674.34
531.22	955.48	5189.84
531.564	955.136	5313.12
531.909	954.791	5470.17
532.253	954.447	5687.32
532.597	954.103	5756.41
532.942	953.758	5928.09
533.286	953.414	5595.48
533.63	953.07	5551.13
533.975	952.725	5735.06
534.319	952.381	5649.31
534.663	952.037	5474.78
535.008	951.692	5608.74
535.352	951.348	5817.61
535.696	951.004	5345.57
536.041	950.659	5361.67
536.385	950.315	5771.02
536.729	949.971	6021.19
537.074	949.626	6110.55
537.418	949.282	5564
537.762	948.938	5369.94
538.107	948.593	5942.33
538.451	948.249	5725.28
538.795	947.905	5879.35
539.14	947.56	5562.2
539.484	947.216	5884.01
539.828	946.872	5958.66
540.173	946.527	5946.01
540.517	946.183	5699.26
540.861	945.839	5850.02
541.205	945.495	5978.72
541.55	945.15	5986.55
541.894	944.806	5803.07
542.238	944.462	5514.14
542.583	944.117	5881.13
542.927	943.773	5783.05
543.271	943.429	5908.45
543.616	943.084	5892.86
543.96	942.74	5907.77
544.304	942.396	5668.62
544.649	942.051	6218.81
544.993	941.707	6074.63
545.337	941.363	6473.5
545.682	941.018	6289.61
546.026	940.674	5759.58
546.37	940.33	5749.69
546.715	939.985	5998.1
547.059	939.641	5976.33
547.403	939.297	5939.99
547.748	938.952	6195.6
548.092	938.608	6126.51
548.436	938.264	6051.8
548.781	937.919	6092.1
549.125	937.575	5635.33
549.469	937.231	6006.12
549.814	936.886	6002.24
550.158	936.542	6344.35
550.502	936.198	6309.5
550.847	935.853	6440.29
551.191	935.509	6297.87
551.535	935.165	6108.09
551.879	934.821	6007.76
552.224	934.476	5997.13
552.568	934.132	5799.11
552.912	933.788	6112.27
553.257	933.443	6216.57
553.601	933.099	6160.57
553.945	932.755	6243.19
554.29	932.41	6039.74
554.634	932.066	6005.64
554.978	931.722	6226.43
555.323	931.377	5861.28
555.667	931.033	6317.28
556.011	930.689	6291.78
556.356	930.344	6213.93
556.7	930	6428.31
557.044	929.656	6273.4
557.389	929.311	6038.16
557.733	928.967	5982.5
558.077	928.623	6536.04
558.422	928.278	6225.34
558.766	927.934	6192.74
559.11	927.59	6088.38
559.455	927.245	6099.14
559.799	926.901	6304.78
560.143	926.557	6536.45
560.488	926.212	6512.87
560.832	925.868	6234.81
561.176	925.524	6638.04
561.521	925.179	6258.81
561.865	924.835	6273.64
562.209	924.491	6648.34
562.553	924.147	6481.23
562.898	923.802	6653.01
563.242	923.458	6611.26
563.586	923.114	6359.3
563.931	922.769	6292.67
564.275	922.425	6285.4
564.619	922.081	6253.88
564.964	921.736	6352.12
565.308	921.392	6471.6
565.652	921.048	6516.76
565.997	920.703	6437.24
566.341	920.359	6440.5
566.685	920.015	6548.96
567.03	919.67	6292.7
567.374	919.326	6635.82
567.718	918.982	6677.38
568.063	918.637	6457.77
568.407	918.293	6778.89
568.751	917.949	6296.2
569.096	917.604	6262.48
569.44	917.26	6584.91
569.784	916.916	6535.76
570.129	916.571	6699.46
570.473	916.227	6692.39
570.817	915.883	6633.04
571.162	915.538	6834.69
571.506	915.194	6563.98
571.85	914.85	6161.05
572.195	914.505	6763.28
572.539	914.161	6538.37
572.883	913.817	6421.9
573.227	913.473	6472.14
573.572	913.128	6745.63
573.916	912.784	6539.8
574.26	912.44	6913.18
574.605	912.095	6664.99
574.949	911.751	6844.8
575.293	911.407	6530.38
575.638	911.062	6575.38
575.982	910.718	7108.38
576.326	910.374	6888.54
576.671	910.029	6685.28
577.015	909.685	6951.05
577.359	909.341	6620.85
577.704	908.996	6882.94
578.048	908.652	6730.17
578.392	908.308	6462.2
578.737	907.963	6812.41
579.081	907.619	6776.97
579.425	907.275	7009.58
579.77	906.93	6615.85
580.114	906.586	6772.61
580.458	906.242	6868.08
580.803	905.897	6748
581.147	905.553	6694.82
581.491	905.209	7111.17
581.836	904.864	6941.65
582.18	904.52	6902.17
582.524	904.176	7017.51
582.868	903.832	7480.84
583.213	903.487	7039.34
583.557	903.143	7242.3
583.901	902.799	6576.69
584.246	902.454	7189.64
584.59	902.11	7152.34
584.934	901.766	7599.22
585.279	901.421	7148.18
585.623	901.077	6894.23
585.967	900.733	7092.75
586.312	900.388	6989.11
586.656	900.044	7202.99
587	899.7	7009.14
587.345	899.355	6875.07
587.689	899.011	7153.31
588.033	898.667	7055.03
588.378	898.322	6909.73
588.722	897.978	7210.06
589.066	897.634	7365.03
589.411	897.289	7128.68
589.755	896.945	7053.8
590.099	896.601	7406.6
590.444	896.256	7364.27
590.788	895.912	6919.53
591.132	895.568	7055.53
591.477	895.223	7131.85
591.821	894.879	7259.74
592.165	894.535	6953.61
592.51	894.19	7191.98
592.854	893.846	7051.37
593.198	893.502	7141.75
593.542	893.158	7173.55
593.887	892.813	7131.17
594.231	892.469	7074.74
594.575	892.125	7038.8
594.92	891.78	7667.57
595.264	891.436	7002.97
595.608	891.092	7305.94
595.953	890.747	7229.07
596.297	890.403	7015.34
596.641	890.059	7214.16
596.986	889.714	7346.38
597.33	889.37	7516.33
597.674	889.026	7668.07
598.019	888.681	7628.23
598.363	888.337	7199.35
598.707	887.993	7336.37
599.052	887.648	7586.45
599.396	887.304	7512.58
599.74	886.96	7537.58
600.085	886.615	7705.92
600.429	886.271	7617.08
600.773	885.927	7423.54
601.118	885.582	7767.33
601.462	885.238	7450.11
601.806	884.894	7443.78
602.151	884.549	7539.09
602.495	884.205	7505.87
602.839	883.861	7388.56
603.184	883.516	7465.3
603.528	883.172	7546.71
603.872	882.828	7929.35
604.216	882.484	8159.22
604.561	882.139	8022.81
604.905	881.795	7593.1
605.249	881.451	7258.2
605.594	881.106	7554.71
605.938	880.762	7621.2
606.282	880.418	7653.4
606.627	880.073	7793.51
606.971	879.729	7582.13
607.315	879.385	7563.62
607.66	879.04	7416.09
608.004	878.696	7639.57
608.348	878.352	7933.93
608.693	878.007	8153.05
609.037	877.663	7408.52
609.381	877.319	7367.61
609.726	876.974	7863.69
610.07	876.63	7624.46
610.414	876.286	7631.36
610.759	875.941	7676
611.103	875.597	7563.84
611.447	875.253	8087.88
611.792	874.908	7765.52
612.136	874.564	7841.59
612.48	874.22	7643.78
612.825	873.875	8235.46
613.169	873.531	7884.76
613.513	873.187	8463.88
613.858	872.842	7514.33
614.202	872.498	7850.95
614.546	872.154	7690.22
614.89	871.81	8145.22
615.235	871.465	7722.73
615.579	871.121	7672.95
615.923	870.777	7521.79
616.268	870.432	7858.09
616.612	870.088	7381.93
616.956	869.744	7870.74
617.301	869.399	7772.77
617.645	869.055	8121.28
617.989	868.711	7951.79
618.334	868.366	8055.34
618.678	868.022	8116.36
619.022	867.678	8047.57
619.367	867.333	8303.32
619.711	866.989	7876.67
620.055	866.645	8036.5
620.4	866.3	8398.82
620.744	865.956	8226.84
621.088	865.612	7951.62
621.433	865.267	8123.72
621.777	864.923	7626.32
622.121	864.579	8514.12
622.466	864.234	7935.78
622.81	863.89	8110.06
623.154	863.546	7924.77
623.499	863.201	8201.29
623.843	862.857	7917.2
624.187	862.513	8313.52
624.532	862.168	8238.48
624.876	861.824	7979.08
625.22	861.48	8599.09
625.564	861.136	7999.1
625.909	860.791	7817.29
626.253	860.447	8150.77
626.597	860.103	8623.47
626.942	859.758	8263.26
627.286	859.414	8132.03
627.63	859.07	8095.93
627.975	858.725	8266.32
628.319	858.381	8507.06
628.663	858.037	8483.36
629.008	857.692	8168.84
629.352	857.348	8344.03
629.696	857.004	8395.7
630.041	856.659	8642.03
630.385	856.315	9013.22
630.729	855.971	8536.64
631.074	855.626	8680.03
631.418	855.282	8605.81
631.762	854.938	8290.36
632.107	854.593	8205.91
632.451	854.249	8472.96
632.795	853.905	8483.7
633.14	853.56	8121.31
633.484	853.216	8737.74
633.828	852.872	8294.9
634.173	852.527	8664.99
634.517	852.183	8879.64
634.861	851.839	8681.81
635.205	851.495	9041.15
635.55	851.15	8523.33
635.894	850.806	8696.8
636.238	850.462	8289.23
636.583	850.117	8385.74
636.927	849.773	8356.16
637.271	849.429	8073.32
637.616	849.084	8578.18
637.96	848.74	8429.9
638.304	848.396	9211.85
638.649	848.051	8622
638.993	847.707	8610.51
639.337	847.363	8759.04
639.682	847.018	8895.42
640.026	846.674	9028.76
640.37	846.33	9114.52
640.715	845.985	8757.88
641.059	845.641	8224.74
641.403	845.297	8915.17
641.748	844.952	9351.47
642.092	844.608	8887.95
642.436	844.264	8858.84
642.781	843.919	8350.95
643.125	843.575	8737.92
643.469	843.231	8820.33
643.814	842.886	8804.82
644.158	842.542	8907.49
644.502	842.198	8883.33
644.847	841.853	8892.88
645.191	841.509	8790.46
645.535	841.165	9127.26
645.879	840.821	9043.03
646.224	840.476	8539.81
646.568	840.132	8687.5
646.912	839.788	8804.3
647.257	839.443	9124.22
647.601	839.099	9187.58
647.945	838.755	8944.48
648.29	838.41	8923.86
648.634	838.066	9345.26
648.978	837.722	9210.89
649.323	837.377	8962.73
649.667	837.033	9376.81
650.011	836.689	9092.6
650.356	836.344	9185
650.7	836	8918.62
651.044	835.656	9154.87
651.389	835.311	8945.02
651.733	834.967	9003.06
652.077	834.623	8925.11
652.422	834.278	9409.56
652.766	833.934	9533.01
653.11	833.59	9291.65
653.455	833.245	9594.35
653.799	832.901	9449.92
654.143	832.557	9846.82
654.488	832.212	9278.24
654.832	831.868	9592.18
655.176	831.524	9467.61
655.521	831.179	9643.41
655.865	830.835	9720.84
656.209	830.491	9706.24
656.553	830.147	9516.82
656.898	829.802	9153.72
657.242	829.458	9657.34
657.586	829.114	8851.37
657.931	828.769	9432.28
658.275	828.425	9491.22
658.619	828.081	9240.98
658.964	827.736	9284.12
659.308	827.392	9063.69
659.652	827.048	9102.23
659.997	826.703	9872.82
660.341	826.359	9537.27
660.685	826.015	9387.73
661.03	825.67	9521.57
661.374	825.326	9315.75
661.718	824.982	9667.22
662.063	824.637	9409.92
662.407	824.293	9828.46
662.751	823.949	9828.96
663.096	823.604	9963.69
663.44	823.26	9492.61
663.784	822.916	9395.26
664.129	822.571	9572.08
664.473	822.227	9802.09
664.817	821.883	9921.65
665.162	821.538	9682.13
665.506	821.194	9671.2
665.85	820.85	9590.87
666.195	820.505	10229.6
666.539	820.161	10023.8
666.883	819.817	9604.17
667.227	819.473	9475.86
667.572	819.128	9648.15
667.916	818.784	10048.7
668.26	818.44	9748.7
668.605	818.095	10038.7
668.949	817.751	10051
669.293	817.407	9585.59
669.638	817.062	9958.76
669.982	816.718	9445.9
670.326	816.374	9931.71
670.671	816.029	9745.26
671.015	815.685	9985.5
671.359	815.341	10024.3
671.704	814.996	9983.51
672.048	814.652	10108.1
672.392	814.308	10144.9
672.737	813.963	10256.8
673.081	813.619	10202.6
673.425	813.275	9631.22
673.77	812.93	9773.91
674.114	812.586	10136.7
674.458	812.242	10079.2
674.803	811.897	10280.9
675.147	811.553	10334.4
675.491	811.209	10485.4
675.836	810.864	10322.2
676.18	810.52	10023.4
676.524	810.176	10646.7
676.868	809.832	10166.4
677.213	809.487	10476.7
677.557	809.143	10429
677.901	808.799	9863.1
678.246	808.454	9960.52
678.59	808.11	10102.6
678.934	807.766	10268
679.279	807.421	10307.5
679.623	807.077	10356
679.967	806.733	10464.1
680.312	806.388	10071.9
680.656	806.044	10104.2
681	805.7	9891.52
681.345	805.355	10510.9
681.689	805.011	10201.1
682.033	804.667	10386.7
682.378	804.322	10318.2
682.722	803.978	10374.9
683.066	803.634	10180.1
683.411	803.289	10168.5
683.755	802.945	10354.7
684.099	802.601	10549.5
684.444	802.256	10224.2
684.788	801.912	10470.4
685.132	801.568	10651.3
685.477	801.223	10829.9
685.821	800.879	10341
686.165	800.535	10309.8
686.51	800.19	10778.4
686.854	799.846	10546.7
687.198	799.502	11143
687.542	799.158	10961.7
687.887	798.813	10800.7
688.231	798.469	10728.5
688.575	798.125	10737.3
688.92	797.78	10732.6
689.264	797.436	10521.5
689.608	797.092	10607.7
689.953	796.747	10684.2
690.297	796.403	10290.6
690.641	796.059	10727.3
690.986	795.714	11106.9
691.33	795.37	10737.4
691.674	795.026	10967.2
692.019	794.681	10702.5
692.363	794.337	10584.7
692.707	793.993	10891.4
693.052	793.648	10825.4
693.396	793.304	10953
693.74	792.96	10875.3
694.085	792.615	10679.6
694.429	792.271	11022.3
694.773	791.927	10971.3
695.118	791.582	11121.1
695.462	791.238	11032.4
695.806	790.894	10979.1
696.151	790.549	10687.3
696.495	790.205	11098.4
696.839	789.861	11209.8
697.184	789.516	11378.9
697.528	789.172	11058.5
697.872	788.828	11017.9
698.216	788.484	10744.7
698.561	788.139	11484.9
698.905	787.795	11287.6
699.249	787.451	11314
699.594	787.106	10648.2
699.938	786.762	11098.3
700.282	786.418	11016
700.627	786.073	10789.4
700.971	785.729	11257.8
701.315	785.385	11365.4
701.66	785.04	10746
702.004	784.696	10956
702.348	784.352	11523.4
702.693	784.007	10970.9
703.037	783.663	11151.3
703.381	783.319	11368.5
703.726	782.974	11636.3
704.07	782.63	11418.7
704.414	782.286	11726.4
704.759	781.941	11295.2
705.103	781.597	11043
705.447	781.253	11090.8
705.792	780.908	11133.3
706.136	780.564	11816.6
706.48	780.22	11454.9
706.825	779.875	11220.1
707.169	779.531	11895.8
707.513	779.187	11373.5
707.858	778.842	11230.2
708.202	778.498	11515.3
708.546	778.154	11923.3
708.89	777.81	11379.7
709.235	777.465	11709.7
709.579	777.121	11638.7
709.923	776.777	11766
710.268	776.432	11418.5
710.612	776.088	11426.3
710.956	775.744	11752
711.301	775.399	12280.8
711.645	775.055	11673.4
711.989	774.711	11742.9
712.334	774.366	11705
712.678	774.022	11329.7
713.022	773.678	11801
713.367	773.333	11370.8
713.711	772.989	11487.5
714.055	772.645	11811.8
714.4	772.3	11548.5
714.744	771.956	12050.5
715.088	771.612	11595.5
715.433	771.267	11937.8
715.777	770.923	11669.1
716.121	770.579	11559.8
716.466	770.234	11789.9
716.81	769.89	11825.4
717.154	769.546	11874.9
717.499	769.201	12139.5
717.843	768.857	11783.9
718.187	768.513	12026.1
718.532	768.168	12018.8
718.876	767.824	11977.9
719.22	767.48	12008.4
719.564	767.136	12442
719.909	766.791	12223.4
720.253	766.447	11900.6
720.597	766.103	12284.7
720.942	765.758	11999
721.286	765.414	11850.9
721.63	765.07	11993.5
721.975	764.725	11974.9
722.319	764.381	12399.5
722.663	764.037	12108.3
723.008	763.692	12082
723.352	763.348	12259.3
723.696	763.004	12356.3
724.041	762.659	12338.9
724.385	762.315	12492.1
724.729	761.971	12246
725.074	761.626	12242.4
725.418	761.282	12477.4
725.762	760.938	12341.3
726.107	760.593	12282.6
726.451	760.249	12550.6
726.795	759.905	12131.6
727.14	759.56	12322.3
727.484	759.216	12265.1
727.828	758.872	12329.1
728.173	758.527	12806.8
728.517	758.183	12768.7
728.861	757.839	13035.7
729.205	757.495	12462.8
729.55	757.15	12817.2
729.894	756.806	12566.4
730.238	756.462	13118.5
730.583	756.117	12728.9
730.927	755.773	12801.6
731.271	755.429	12574.2
731.616	755.084	12564.8
731.96	754.74	12619.5
732.304	754.396	12549.7
732.649	754.051	13033.1
732.993	753.707	13112.4
733.337	753.363	12991.8
733.682	753.018	12469.7
734.026	752.674	12756
734.37	752.33	12556.7
734.715	751.985	12748.5
735.059	751.641	12981.9
735.403	751.297	13511.3
735.748	750.952	12573.8
736.092	750.608	12284.8
736.436	750.264	13290.5
736.781	749.919	13542.8
737.125	749.575	13135.5
737.469	749.231	13286.1
737.814	748.886	13190.7
738.158	748.542	12982.4
738.502	748.198	12853.8
738.847	747.853	12933.3
739.191	747.509	13369.9
739.535	747.165	13042.1
739.879	746.821	13188.7
740.224	746.476	12979.7
740.568	746.132	12894.1
740.912	745.788	12845.4
741.257	745.443	13408
741.601	745.099	13497.9
741.945	744.755	12750.7
742.29	744.41	12866.6
742.634	744.066	13320.8
742.978	743.722	13265
743.323	743.377	13708.8
743.667	743.033	13357.2
744.011	742.689	12727.7
744.356	742.344	12952.2
744.7	742	13173.5
745.044	741.656	13631.6
745.389	741.311	13058.4
745.733	740.967	13475.3
746.077	740.623	13294.2
746.422	740.278	14007.2
746.766	739.934	13329.4
747.11	739.59	13225.2
747.455	739.245	13071.4
747.799	738.901	13411.3
748.143	738.557	13276.8
748.488	738.212	13493.6
748.832	737.868	13445.3
749.176	737.524	13471.9
749.521	737.179	13102.2
749.865	736.835	13517.8
750.209	736.491	13756.5
750.553	736.147	13682.9
750.898	735.802	13607.8
751.242	735.458	13796.2
751.586	735.114	13655.5
751.931	734.769	13775
752.275	734.425	13995.8
752.619	734.081	14035.3
752.964	733.736	14176
753.308	733.392	13737.5
753.652	733.048	14216
753.997	732.703	14355.4
754.341	732.359	14097.4
754.685	732.015	14136.2
755.03	731.67	14028
755.374	731.326	14091.6
755.718	730.982	14313.8
756.063	730.637	13963.4
756.407	730.293	14126.7
756.751	729.949	14471.4
757.096	729.604	14392.2
757.44	729.26	14132.6
757.784	728.916	13911
758.129	728.571	13814.8
758.473	728.227	13505.9
758.817	727.883	13795
759.162	727.538	13890.1
759.506	727.194	13890.3
759.85	726.85	14327.1
760.195	726.505	14229.3
760.539	726.161	14125.4
760.883	725.817	14072.4
761.227	725.473	14105.3
761.572	725.128	14176.2
761.916	724.784	14010.4
762.26	724.44	14196.6
762.605	724.095	14922.8
762.949	723.751	14367.1
763.293	723.407	14876.5
763.638	723.062	14382.8
763.982	722.718	14485.4
764.326	722.374	14444.8
764.671	722.029	14234.2
765.015	721.685	14633.7
765.359	721.341	14692.2
765.704	720.996	14296.8
766.048	720.652	14310.6
766.392	720.308	14598.4
766.737	719.963	14501.5
767.081	719.619	14546.3
767.425	719.275	14605.5
767.77	718.93	14266.3
768.114	718.586	13955.8
768.458	718.242	14267.4
768.803	717.897	14382.5
769.147	717.553	14810.2
769.491	717.209	14815.7
769.836	716.864	15097.2
770.18	716.52	14474.8
770.524	716.176	14999.7
770.868	715.832	14551.8
771.213	715.487	15267.9
771.557	715.143	14962.2
771.901	714.799	14662.1
772.246	714.454	15457.6
772.59	714.11	14663.5
772.934	713.766	14886.6
773.279	713.421	15253.1
773.623	713.077	15000.3
773.967	712.733	14726.5
774.312	712.388	14881
774.656	712.044	14544.9
775	711.7	14696.4
775.345	711.355	14890
775.689	711.011	14744
776.033	710.667	15150.1
776.378	710.322	15056.5
776.722	709.978	15048.2
777.066	709.634	15357.5
777.411	709.289	15211.5
777.755	708.945	15415.2
778.099	708.601	15063.3
778.444	708.256	15078.8
778.788	707.912	15144.2
779.132	707.568	14921.5
779.477	707.223	15116.9
779.821	706.879	15269.9
780.165	706.535	15184.6
780.51	706.19	15209.2
780.854	705.846	15533.4
781.198	705.502	15492.6
781.542	705.158	15528.3
781.887	704.813	15137.6
782.231	704.469	15102.7
782.575	704.125	15433.8
782.92	703.78	15768.4
783.264	703.436	15377.7
783.608	703.092	15539.9
783.953	702.747	15067
784.297	702.403	15254.6
784.641	702.059	15669.9
784.986	701.714	15830
785.33	701.37	15652.6
785.674	701.026	15914.4
786.019	700.681	15649
786.363	700.337	15687.2
786.707	699.993	15852.4
787.052	699.648	16182.6
787.396	699.304	16023.8
787.74	698.96	16251.4
788.085	698.615	15616.9
788.429	698.271	16041.2
788.773	697.927	15593.5
789.118	697.582	15847.9
789.462	697.238	16262.2
789.806	696.894	15973
790.151	696.549	15291.1
790.495	696.205	16143.3
790.839	695.861	16272.1
791.184	695.516	16112.7
791.528	695.172	15815.8
791.872	694.828	16665.2
792.216	694.484	16457.2
792.561	694.139	16335.5
792.905	693.795	16696.6
793.249	693.451	15659.6
793.594	693.106	15656.6
793.938	692.762	16284.2
794.282	692.418	16204.2
794.627	692.073	16306.2
794.971	691.729	16105
795.315	691.385	16005.2
795.66	691.04	16318
796.004	690.696	16669.8
796.348	690.352	16617.6
796.693	690.007	16324.3
797.037	689.663	16540.7
797.381	689.319	16215.2
797.726	688.974	16898.6
798.07	688.63	16718
798.414	688.286	16335.7
798.759	687.941	16552.7
799.103	687.597	17265.1
799.447	687.253	16712.9
799.792	686.908	16747.2
800.136	686.564	16311
800.48	686.22	16485
800.825	685.875	16849.3
801.169	685.531	16412.8
801.513	685.187	17226.3
801.858	684.842	16819.2
802.202	684.498	16784
802.546	684.154	16524.4
802.89	683.81	16652.6
803.235	683.465	16983.5
803.579	683.121	16788.7
803.923	682.777	16603.9
804.268	682.432	16997.5
804.612	682.088	16832.6
804.956	681.744	17011
805.301	681.399	16738.2
805.645	681.055	16967.4
805.989	680.711	16749.4
806.334	680.366	17186.9
806.678	680.022	17165.6
807.022	679.678	16908.7
807.367	679.333	17235.8
807.711	678.989	17458
808.055	678.645	17280.8
808.4	678.3	16745.9
808.744	677.956	16962.6
809.088	677.612	16965.4
809.433	677.267	17007.4
809.777	676.923	17050.6
810.121	676.579	17849.2
810.466	676.234	16919.9
810.81	675.89	17103.3
811.154	675.546	17185.7
811.499	675.201	17206.5
811.843	674.857	17494.7
812.187	674.513	17023
812.532	674.168	18000.7
812.876	673.824	17796.3
813.22	673.48	17579.4
813.564	673.136	17712.4
813.909	672.791	17547.5
814.253	672.447	17067.1
814.597	672.103	17332.6
814.942	671.758	17449.5
815.286	671.414	17213.6
815.63	671.07	17440
815.975	670.725	17313
816.319	670.381	17336.7
816.663	670.037	17407.9
817.008	669.692	17641.7
817.352	669.348	17613.1
817.696	669.004	17214.8
818.041	668.659	17323
818.385	668.315	17620.8
818.729	667.971	17948
819.074	667.626	17255.2
819.418	667.282	17959.6
819.762	666.938	18056
820.107	666.593	17888.7
820.451	666.249	18354.9
820.795	665.905	17941
821.14	665.56	17583
821.484	665.216	17795.4
821.828	664.872	17980.4
822.173	664.527	18135.4
822.517	664.183	18747.3
822.861	663.839	18093.8
823.205	663.495	18393.4
823.55	663.15	18188.9
823.894	662.806	18532
824.238	662.462	19142.8
824.583	662.117	17824.9
824.927	661.773	17985
825.271	661.429	17954.6
825.616	661.084	18168.7
825.96	660.74	18537.2
826.304	660.396	19093.6
826.649	660.051	18304
826.993	659.707	18855.6
827.337	659.363	18929.4
827.682	659.018	18510.6
828.026	658.674	18824.7
828.37	658.33	18867.5
828.715	657.985	18815.5
829.059	657.641	18781.4
829.403	657.297	19299.7
829.748	656.952	19032.4
830.092	656.608	19031.6
830.436	656.264	18244.4
830.781	655.919	18853.5
831.125	655.575	18960
831.469	655.231	19380.3
831.814	654.886	18689.5
832.158	654.542	18952.2
832.502	654.198	18727.2
832.847	653.853	18947.3
833.191	653.509	19390.3
833.535	653.165	19365.4
833.879	652.821	19104.7
834.224	652.476	18794.4
834.568	652.132	18873.4
834.912	651.788	19748.5
835.257	651.443	19142.3
835.601	651.099	19015.3
835.945	650.755	19538.7
836.29	650.41	19134.6
836.634	650.066	19284
836.978	649.722	19108.4
837.323	649.377	19203.2
837.667	649.033	19608.7
838.011	648.689	19867
838.356	648.344	19314.4
838.7	648	20150.3
839.044	647.656	19849.8
839.389	647.311	19574.1
839.733	646.967	19822.7
840.077	646.623	19229.6
840.422	646.278	19450.9
840.766	645.934	19214.3
841.11	645.59	19057.4
841.455	645.245	19604.5
841.799	644.901	19613.1
842.143	644.557	19507.2
842.488	644.212	19443.3
842.832	643.868	19749.6
843.176	643.524	19771.3
843.521	643.179	19916.5
843.865	642.835	19976.7
844.209	642.491	20642.9
844.553	642.147	20256.5
844.898	641.802	19786.7
845.242	641.458	20568.2
845.586	641.114	20955.1
845.931	640.769	20185.8
846.275	640.425	20448.1
846.619	640.081	20331.4
846.964	639.736	19968.8
847.308	639.392	20134.3
847.652	639.048	20665.8
847.997	638.703	20651.6
848.341	638.359	21391.8
848.685	638.015	20704.2
849.03	637.67	20914.5
849.374	637.326	21169.5
849.718	636.982	21146.4
850.063	636.637	21694.2
850.407	636.293	21094.1
850.751	635.949	21681.1
851.096	635.604	22168.6
851.44	635.26	21581
851.784	634.916	21276.8
852.129	634.571	21994.4
852.473	634.227	22141.9
852.817	633.883	21962.1
853.162	633.538	22422.5
853.506	633.194	22481.6
853.85	632.85	23061.1
854.195	632.505	23320.4
854.539	632.161	22550.4
854.883	631.817	23266.4
855.227	631.473	23453
855.572	631.128	23456.5
855.916	630.784	24062.8
856.26	630.44	24505.2
856.605	630.095	24253.5
856.949	629.751	24844.8
857.293	629.407	24369.7
857.638	629.062	24378
857.982	628.718	24520.9
858.326	628.374	25168.5
858.671	628.029	24823.1
859.015	627.685	24532.4
859.359	627.341	24642.7
859.704	626.996	24062.5
860.048	626.652	24143.3
860.392	626.308	24049.2
860.737	625.963	24271.8
861.081	625.619	24445.1
861.425	625.275	23448.9
861.77	624.93	22728.8
862.114	624.586	22189
862.458	624.242	22289.3
862.803	623.897	22191.7
863.147	623.553	21620.5
863.491	623.209	21749.1
863.836	622.864	21575.2
864.18	622.52	21944.7
864.524	622.176	21462.9
864.868	621.832	20929.4
865.213	621.487	20542.5
865.557	621.143	20665.7
865.901	620.799	21589.4
866.246	620.454	21581
866.59	620.11	20900.3
866.934	619.766	21265.6
867.279	619.421	20697
867.623	619.077	20708.1
867.967	618.733	20508.1
868.312	618.388	20746.9
868.656	618.044	19880.9
869	617.7	20824.4
869.345	617.355	20370.6
869.689	617.011	20098.7
870.033	616.667	20227.3
870.378	616.322	20429.3
870.722	615.978	20549.9
871.066	615.634	20320.9
871.411	615.289	20787.7
871.755	614.945	20278
872.099	614.601	20724.1
872.444	614.256	20819.6
872.788	613.912	19751.3
873.132	613.568	20214.6
873.477	613.223	20195.3
873.821	612.879	20398.1
874.165	612.535	20357.3
874.51	612.19	19983.1
874.854	611.846	20161.1
875.198	611.502	19639.7
875.542	611.158	20571.7
875.887	610.813	19949.1
876.231	610.469	20319.9
876.575	610.125	20426.5
876.92	609.78	19656.5
877.264	609.436	19981.6
877.608	609.092	20549.4
877.953	608.747	20596.3
878.297	608.403	20176.8
878.641	608.059	20166.3
878.986	607.714	19917.2
879.33	607.37	20320.4
879.674	607.026	20799.5
880.019	606.681	20306.8
880.363	606.337	20449.6
880.707	605.993	20465.7
881.052	605.648	21212.8
881.396	605.304	20155.4
881.74	604.96	20041.4
882.085	604.615	20102.6
882.429	604.271	20510.6
882.773	603.927	21378.8
883.118	603.582	20479.7
883.462	603.238	21048.7
883.806	602.894	21221.7
884.151	602.549	20870.2
884.495	602.205	20127.2
884.839	601.861	20545
885.184	601.516	20683.6
885.528	601.172	21128.8
885.872	600.828	21347.8
886.216	600.484	20721.5
886.561	600.139	21184.3
886.905	599.795	21102
887.249	599.451	20532.5
887.594	599.106	21074.4
887.938	598.762	20730.5
888.282	598.418	20698
888.627	598.073	20978.5
888.971	597.729	20757.2
889.315	597.385	20714.2
889.66	597.04	20845.8
890.004	596.696	21256.1
890.348	596.352	20988
890.693	596.007	20537.6
891.037	595.663	21641
891.381	595.319	21351.7
891.726	594.974	21094.8
892.07	594.63	21378.4
892.414	594.286	21427.3
892.759	593.941	21804.3
893.103	593.597	21451.1
893.447	593.253	21534.3
893.792	592.908	21389.8
894.136	592.564	21714.9
894.48	592.22	21071.9
894.825	591.875	21323.4
895.169	591.531	21663.4
895.513	591.187	21606.3
895.858	590.842	21547.2
896.202	590.498	21335
896.546	590.154	21188.9
896.89	589.81	21613.2
897.235	589.465	22399.7
897.579	589.121	22018.4
897.923	588.777	21424.4
898.268	588.432	21406.1
898.612	588.088	21111.5
898.956	587.744	22057.8
899.301	587.399	20612.9
899.645	587.055	21434.3
899.989	586.711	22094
900.334	586.366	21319.8
900.678	586.022	21896.9
901.022	585.678	21976.2
901.367	585.333	22068.5
901.711	584.989	21937.3
902.055	584.645	21989.9
902.4	584.3	22065.4
902.744	583.956	22242.4
903.088	583.612	21828.8
903.433	583.267	21100
903.777	582.923	21938.6
904.121	582.579	21977.6
904.466	582.234	22213.6
904.81	581.89	21882
905.154	581.546	21822.1
905.499	581.201	22170
905.843	580.857	21920.5
906.187	580.513	21769
906.532	580.168	22354.1
906.876	579.824	22622.9
907.22	579.48	22616.7
907.564	579.136	22755.9
907.909	578.791	22213.3
908.253	578.447	21954.1
908.597	578.103	22140.4
908.942	577.758	22203.4
909.286	577.414	22169.5
909.63	577.07	22966.9
909.975	576.725	22570.5
910.319	576.381	22190.2
910.663	576.037	22046.7
911.008	575.692	22206.9
911.352	575.348	22987.2
911.696	575.004	22314
912.041	574.659	22274.5
912.385	574.315	22678.6
912.729	573.971	22941.8
913.074	573.626	22865.3
913.418	573.282	22683.5
913.762	572.938	22360.4
914.107	572.593	22327
914.451	572.249	22192.4
914.795	571.905	22344.1
915.14	571.56	22632.3
915.484	571.216	22253.1
915.828	570.872	23100.6
916.173	570.527	23025.8
916.517	570.183	22834.1
916.861	569.839	22993.9
917.205	569.495	22676
917.55	569.15	22603.6
917.894	568.806	22969
918.238	568.462	22693
918.583	568.117	22534.4
918.927	567.773	22852.4
919.271	567.429	23217.4
919.616	567.084	23011.8
919.96	566.74	22998.6
920.304	566.396	22739
920.649	566.051	22968.6
920.993	565.707	22999
921.337	565.363	23537.3
921.682	565.018	23486.2
922.026	564.674	23383.2
922.37	564.33	23716.5
922.715	563.985	23917.6
923.059	563.641	23717.9
923.403	563.297	23542.4
923.748	562.952	23619.8
924.092	562.608	23489.2
924.436	562.264	23752.3
924.781	561.919	23729
925.125	561.575	23581.2
925.469	561.231	24208.9
925.814	560.886	24727.1
926.158	560.542	24300.3
926.502	560.198	24036.7
926.847	559.853	24179.2
927.191	559.509	24471.5
927.535	559.165	23795.9
927.879	558.821	24404
928.224	558.476	24379.1
928.568	558.132	24236
928.912	557.788	24700.5
929.257	557.443	24307.1
929.601	557.099	24529.7
929.945	556.755	23828.3
930.29	556.41	24119.3
930.634	556.066	24012.6
930.978	555.722	24477.3
931.323	555.377	24516
931.667	555.033	25079.6
932.011	554.689	24536.9
932.356	554.344	25382.9
932.7	554	25130.4
933.044	553.656	24182.3
933.389	553.311	24679.2
933.733	552.967	24129.6
934.077	552.623	24443.1
934.422	552.278	24468.1
934.766	551.934	24472.9
935.11	551.59	24924
935.455	551.245	25104
935.799	550.901	24031.4
936.143	550.557	24180.6
936.488	550.212	24335.6
936.832	549.868	25234.4
937.176	549.524	24537.8
937.521	549.179	25753.4
937.865	548.835	24280.8
938.209	548.491	24501.9
938.553	548.147	24913.2
938.898	547.802	25167.8
939.242	547.458	24669.2
939.586	547.114	25248.6
939.931	546.769	24952.8
940.275	546.425	25403.7
940.619	546.081	25225.9
940.964	545.736	25209.3
941.308	545.392	25646.4
941.652	545.048	24755.5
941.997	544.703	24581.8
942.341	544.359	25010.4
942.685	544.015	24469.5
943.03	543.67	24739.3
943.374	543.326	24435.4
943.718	542.982	24406.8
944.063	542.637	24781.8
944.407	542.293	24459.3
944.751	541.949	24451.5
945.096	541.604	24971.5
945.44	541.26	25173.3
945.784	540.916	25214.1
946.129	540.571	25082.8
946.473	540.227	25413.5
946.817	539.883	24579.5
947.162	539.538	25613.6
947.506	539.194	25391.2
947.85	538.85	25086.8
948.195	538.505	25030.4
948.539	538.161	26020.1
948.883	537.817	25290.6
949.227	537.473	25760.9
949.572	537.128	26101.6
949.916	536.784	26559
950.26	536.44	25994.4
950.605	536.095	26503
950.949	535.751	26502.8
951.293	535.407	26954.6
951.638	535.062	26977.2
951.982	534.718	27399.7
952.326	534.374	27056
952.671	534.029	27316.1
953.015	533.685	27205.8
953.359	533.341	27803.6
953.704	532.996	27795.6
954.048	532.652	28032.8
954.392	532.308	28693.9
954.737	531.963	28892.4
955.081	531.619	28882.7
955.425	531.275	28765.9
955.77	530.93	28884.3
956.114	530.586	29453.9
956.458	530.242	29265.7
956.803	529.897	29884.7
957.147	529.553	30216.1
957.491	529.209	29795.7
957.836	528.864	29903.4
958.18	528.52	29544.3
958.524	528.176	30387.8
958.868	527.832	30555
959.213	527.487	29994.3
959.557	527.143	30747.4
959.901	526.799	30604.3
960.246	526.454	30591.9
960.59	526.11	31477.5
960.934	525.766	31614.6
961.279	525.421	32080.2
961.623	525.077	32552.7
961.967	524.733	32414.3
962.312	524.388	34023.5
962.656	524.044	34512.8
963	523.7	35687.8
963.345	523.355	37011
963.689	523.011	41035.8
964.033	522.667	41496.7
964.378	522.322	44255.9
964.722	521.978	47440.7
965.066	521.634	49741.8
965.411	521.289	49464.4
965.755	520.945	48761.4
966.099	520.601	45457
966.444	520.256	41676.2
966.788	519.912	37655.1
967.132	519.568	34072.2
967.477	519.223	32892.5
967.821	518.879	30504.8
968.165	518.535	28719.3
968.51	518.19	27793.2
968.854	517.846	26697.3
969.198	517.502	26100.1
969.542	517.158	25535
969.887	516.813	25929.5
970.231	516.469	25192.4
970.575	516.125	25240
970.92	515.78	25170.3
971.264	515.436	25326.8
971.608	515.092	25165.9
971.953	514.747	24581.2
972.297	514.403	25550.9
972.641	514.059	25242.7
972.986	513.714	25062.1
973.33	513.37	25259.9
973.674	513.026	25645.8
974.019	512.681	25327.8
974.363	512.337	24715.6
974.707	511.993	25115.9
975.052	511.648	25006
975.396	511.304	25255.7
975.74	510.96	24815
976.085	510.615	24790.1
976.429	510.271	25588.6
976.773	509.927	25806.2
977.118	509.582	24613.5
977.462	509.238	26248.8
977.806	508.894	25786.7
978.151	508.549	26647.6
978.495	508.205	26843.6
978.839	507.861	27471.9
979.184	507.516	26881.1
979.528	507.172	27509.2
979.872	506.828	28222.1
980.216	506.484	28288.7
980.561	506.139	29307.9
980.905	505.795	29255.4
981.249	505.451	29585.9
981.594	505.106	29583.4
981.938	504.762	30223.9
982.282	504.418	30131.8
982.627	504.073	30477.4
982.971	503.729	30874
983.315	503.385	30721.3
983.66	503.04	31540.1
984.004	502.696	31275.8
984.348	502.352	31354.1
984.693	502.007	31415.3
985.037	501.663	31427.2
985.381	501.319	31564.9
985.726	500.974	31565
986.07	500.63	33236.3
986.414	500.286	34592.3
986.759	499.941	34850.8
987.103	499.597	36474.8
987.447	499.253	38584
987.792	498.908	39710.3
988.136	498.564	43068.6
988.48	498.22	46580.2
988.825	497.875	51641.8
989.169	497.531	56947.3
989.513	497.187	63341.3
989.858	496.842	67810.5
990.202	496.498	70596.3
990.546	496.154	68787.2
990.89	495.81	63492
991.235	495.465	56442.4
991.579	495.121	48491.3
991.923	494.777	40723.8
992.268	494.432	34970.5
992.612	494.088	32473.9
992.956	493.744	28792.4
993.301	493.399	26015.2
993.645	493.055	23911.2
993.989	492.711	23040.8
994.334	492.366	22668.3
994.678	492.022	21187.5
995.022	491.678	20875.6
995.367	491.333	21435
995.711	490.989	19704.5
996.055	490.645	19800.9
996.4	490.3	19696.1
996.744	489.956	18551.7
997.088	489.612	19120.8
997.433	489.267	18524.3
997.777	488.923	18818.3
998.121	488.579	18920
998.466	488.234	18567.5
998.81	487.89	18055.4
999.154	487.546	18029.2
999.499	487.201	18170.4
999.843	486.857	17738.2
1000.19	486.513	18263.8
1000.53	486.168	18266.5
1000.88	485.824	17467.2
1001.22	485.48	17565.7
1001.56	485.136	17923.1
1001.91	484.791	17966.5
1002.25	484.447	17495.5
1002.6	484.103	17572.4
1002.94	483.758	17561
1003.29	483.414	17945.5
1003.63	483.07	17882.4
1003.97	482.725	17688.5
1004.32	482.381	17864.2
1004.66	482.037	17574.3
1005.01	481.692	17290.6
1005.35	481.348	17534.4
1005.7	481.004	17516.7
1006.04	480.659	17378.1
1006.38	480.315	17376.8
1006.73	479.971	17426.3
1007.07	479.626	17479.1
1007.42	479.282	17484.8
1007.76	478.938	17098.4
1008.11	478.593	17627.6
1008.45	478.249	16655.3
1008.8	477.905	17536.5
1009.14	477.56	17777.1
1009.48	477.216	17479.8
1009.83	476.872	17749.1
1010.17	476.527	17185.9
1010.52	476.183	16999.4
1010.86	475.839	17497.8
1011.21	475.495	18362.5
1011.55	475.15	17903.6
1011.89	474.806	17383.8
1012.24	474.462	17877.9
1012.58	474.117	18034.2
1012.93	473.773	17418
1013.27	473.429	17359.9
1013.62	473.084	17617.5
1013.96	472.74	17327.3
1014.3	472.396	17885
1014.65	472.051	17825.6
1014.99	471.707	18050.2
1015.34	471.363	17644.4
1015.68	471.018	17639.2
1016.03	470.674	17636.1
1016.37	470.33	17567.9
1016.71	469.985	17612.7
1017.06	469.641	17320.4
1017.4	469.297	17199
1017.75	468.952	17246.2
1018.09	468.608	17317.2
1018.44	468.264	17629.9
1018.78	467.919	17913.7
1019.12	467.575	17657.2
1019.47	467.231	18037.6
1019.81	466.886	17708.5
1020.16	466.542	17198.5
1020.5	466.198	18419.6
1020.85	465.853	17638.1
1021.19	465.509	17518
1021.54	465.165	17940.5
1021.88	464.821	18146.6
1022.22	464.476	17714.1
1022.57	464.132	17925.7
1022.91	463.788	17593.9
1023.26	463.443	18030.5
1023.6	463.099	17866.6
1023.95	462.755	18567.2
1024.29	462.41	18440
1024.63	462.066	17648.6
1024.98	461.722	18140.3
1025.32	461.377	17903
1025.67	461.033	18370.3
1026.01	460.689	18146.5
1026.36	460.344	18065.1
1026.7	460	17738.8
1027.04	459.656	17951.8
1027.39	459.311	18446.4
1027.73	458.967	18020.3
1028.08	458.623	17837.1
1028.42	458.278	18259.8
1028.77	457.934	18012.9
1029.11	457.59	18060.7
1029.45	457.245	18061.3
1029.8	456.901	17991.4
1030.14	456.557	17589.1
1030.49	456.212	18338.4
1030.83	455.868	18350.4
1031.18	455.524	18204.3
1031.52	455.179	18629.6
1031.86	454.835	18492.1
1032.21	454.491	18226
1032.55	454.147	18459.3
1032.9	453.802	18322.1
1033.24	453.458	18292.5
1033.59	453.114	18150
1033.93	452.769	18328.2
1034.28	452.425	18301.4
1034.62	452.081	18582.2
1034.96	451.736	18324.9
1035.31	451.392	18757.9
1035.65	451.048	18611.9
1036	450.703	18636.4
1036.34	450.359	18233.3
1036.69	450.015	18478.2
1037.03	449.67	18241.8
1037.37	449.326	18673.2
1037.72	448.982	19013
1038.06	448.637	18362.4
1038.41	448.293	18712.2
1038.75	447.949	18474.5
1039.1	447.604	18694.6
1039.44	447.26	18457.1
1039.78	446.916	19037.6
1040.13	446.571	18721.9
1040.47	446.227	18952
1040.82	445.883	18778.6
1041.16	445.538	18679.2
1041.51	445.194	18334.8
1041.85	444.85	19143.9
1042.19	444.505	18371.7
1042.54	444.161	18865.7
1042.88	443.817	18228.5
1043.23	443.473	18510.3
1043.57	443.128	19232.1
1043.92	442.784	18814.2
1044.26	442.44	19684.5
1044.6	442.095	19427
1044.95	441.751	19032
1045.29	441.407	18798.1
1045.64	441.062	19270.3
1045.98	440.718	19527.9
1046.33	440.374	19822.2
1046.67	440.029	19260.4
1047.02	439.685	18993
1047.36	439.341	19695.3
1047.7	438.996	18936
1048.05	438.652	19371.1
1048.39	438.308	19161.9
1048.74	437.963	19778.8
1049.08	437.619	19389.8
1049.43	437.275	18959.1
1049.77	436.93	19055.5
1050.11	436.586	19445.9
1050.46	436.242	19461.7
1050.8	435.897	19793.5
1051.15	435.553	18975.1
1051.49	435.209	19392.1
1051.84	434.864	19341.3
1052.18	434.52	19677.2
1052.52	434.176	19321.1
1052.87	433.832	19447.6
1053.21	433.487	19029.9
1053.56	433.143	19335
1053.9	432.799	19296.8
1054.25	432.454	19491.4
1054.59	432.11	19820.7
1054.93	431.766	20085.2
1055.28	431.421	20357.7
1055.62	431.077	19956.3
1055.97	430.733	19635.8
1056.31	430.388	19883.6
1056.66	430.044	19182.8
1057	429.7	19933.9
1057.34	429.355	19996.6
1057.69	429.011	19904.3
1058.03	428.667	20261.7
1058.38	428.322	19619.1
1058.72	427.978	20000.5
1059.07	427.634	20256.1
1059.41	427.289	19882.5
1059.75	426.945	19786
1060.1	426.601	20604.7
1060.44	426.256	20079.3
1060.79	425.912	19722.1
1061.13	425.568	19341.3
1061.48	425.223	19878.7
1061.82	424.879	20394.6
1062.17	424.535	20581
1062.51	424.19	20352.1
1062.85	423.846	19610.1
1063.2	423.502	19858.5
1063.54	423.158	20044.5
1063.89	422.813	20132
1064.23	422.469	20321.5
1064.58	422.125	20190.7
1064.92	421.78	20437
1065.26	421.436	20124.1
1065.61	421.092	20248.2
1065.95	420.747	20106.4
1066.3	420.403	20323.4
1066.64	420.059	20691.5
1066.99	419.714	19847.5
1067.33	419.37	20247.3
1067.67	419.026	20265.3
1068.02	418.681	20525.2
1068.36	418.337	20702
1068.71	417.993	20808.5
1069.05	417.648	20679.6
1069.4	417.304	19951.1
1069.74	416.96	20709.6
1070.08	416.615	20161.2
1070.43	416.271	21622.1
1070.77	415.927	21244.6
1071.12	415.582	20638
1071.46	415.238	20819.3
1071.81	414.894	21265
1072.15	414.549	20866.2
1072.49	414.205	21073.1
1072.84	413.861	20939.4
1073.18	413.516	20458.8
1073.53	413.172	20947.9
1073.87	412.828	21776.1
1074.22	412.484	21234.2
1074.56	412.139	21057.4
1074.91	411.795	21258.6
1075.25	411.451	21024.3
1075.59	411.106	21269.4
1075.94	410.762	21120.1
1076.28	410.418	21438.6
1076.63	410.073	21316.2
1076.97	409.729	21467.7
1077.32	409.385	21487.4
1077.66	409.04	20981.9
1078	408.696	21641.4
1078.35	408.352	21209.5
1078.69	408.007	21499.9
1079.04	407.663	20693
1079.38	407.319	21118.2
1079.73	406.974	21449.6
1080.07	406.63	20923.5
1080.41	406.286	21031.7
1080.76	405.941	21715.6
1081.1	405.597	21186.5
1081.45	405.253	21311.1
1081.79	404.908	21474.1
1082.14	404.564	21892.8
1082.48	404.22	22069.7
1082.82	403.875	21323.3
1083.17	403.531	21898.2
1083.51	403.187	21739.4
1083.86	402.842	21884.8
1084.2	402.498	21738.4
1084.55	402.154	21629.9
1084.89	401.81	21567.5
1085.23	401.465	22569.8
1085.58	401.121	21620.2
1085.92	400.777	21476.3
1086.27	400.432	21440.1
1086.61	400.088	21468.3
1086.96	399.744	21506.7
1087.3	399.399	21717.2
1087.65	399.055	22217.6
1087.99	398.711	22373.6
1088.33	398.366	22059.9
1088.68	398.022	22324.1
1089.02	397.678	22154.2
1089.37	397.333	22298.8
1089.71	396.989	22459.5
1090.06	396.645	22001.3
1090.4	396.3	21652.7
1090.74	395.956	22349.1
1091.09	395.612	22486.8
1091.43	395.267	22920.7
1091.78	394.923	22650.5
1092.12	394.579	22063.1
1092.47	394.234	22453.4
1092.81	393.89	22224.9
1093.15	393.546	21854.5
1093.5	393.201	22917.1
1093.84	392.857	22296.7
1094.19	392.513	22532.2
1094.53	392.168	23142.8
1094.88	391.824	22842.6
1095.22	391.48	22788
1095.56	391.136	22508.3
1095.91	390.791	21969.7
1096.25	390.447	21584.1
1096.6	390.103	21896.9
1096.94	389.758	22063
1097.29	389.414	22631.7
1097.63	389.07	22669.1
1097.97	388.725	22820.7
1098.32	388.381	23002.7
1098.66	388.037	22145.4
1099.01	387.692	22940.9
1099.35	387.348	22914.1
1099.7	387.004	22850.5
1100.04	386.659	23083.9
1100.38	386.315	22925
1100.73	385.971	23263.3
1101.07	385.626	23446.1
1101.42	385.282	23146.5
1101.76	384.938	23346.4
1102.11	384.593	23794.3
1102.45	384.249	23209
1102.8	383.905	23351.1
1103.14	383.56	23527.4
1103.48	383.216	23769.1
1103.83	382.872	23809.6
1104.17	382.527	22879.5
1104.52	382.183	23143.7
1104.86	381.839	24265.7
1105.21	381.495	23651.8
1105.55	381.15	23591.8
1105.89	380.806	24292.6
1106.24	380.462	23749.8
1106.58	380.117	24198.6
1106.93	379.773	24052.9
1107.27	379.429	23825.7
1107.62	379.084	23688.9
1107.96	378.74	24288.9
1108.3	378.396	24081.6
1108.65	378.051	24092.8
1108.99	377.707	24580.2
1109.34	377.363	23509.8
1109.68	377.018	24154.4
1110.03	376.674	23429
1110.37	376.33	24580.4
1110.71	375.985	24604.3
1111.06	375.641	24473
1111.4	375.297	24619.7
1111.75	374.952	24843
1112.09	374.608	24358.2
1112.44	374.264	24397.6
1112.78	373.919	23837.6
1113.12	373.575	24323.1
1113.47	373.231	24420.7
1113.81	372.886	24720
1114.16	372.542	23908.2
1114.5	372.198	24289
1114.85	371.853	24308.4
1115.19	371.509	23974.2
1115.54	371.165	24058.3
1115.88	370.821	23905.5
1116.22	370.476	23978.1
1116.57	370.132	24496.4
1116.91	369.788	24032.6
1117.26	369.443	24299.2
1117.6	369.099	24199.3
1117.95	368.755	24424.3
1118.29	368.41	24534.4
1118.63	368.066	24077.5
1118.98	367.722	24414.4
1119.32	367.377	23665.5
1119.67	367.033	24282.1
1120.01	366.689	23994.4
1120.36	366.344	24320.8
1120.7	366	24486.3
1121.04	365.656	24238.3
1121.39	365.311	23549.3
1121.73	364.967	24220.8
1122.08	364.623	24101.2
1122.42	364.278	23031.2
1122.77	363.934	23772.7
1123.11	363.59	24214
1123.45	363.245	23264.1
1123.8	362.901	23628.7
1124.14	362.557	23167.9
1124.49	362.212	24032.7
1124.83	361.868	23065.8
1125.18	361.524	23180.6
1125.52	361.179	22992.7
1125.86	360.835	23099.1
1126.21	360.491	22920.3
1126.55	360.147	23034.4
1126.9	359.802	23404.5
1127.24	359.458	22983.3
1127.59	359.114	23270
1127.93	358.769	23382.6
1128.28	358.425	22857.5
1128.62	358.081	22511.7
1128.96	357.736	22831.3
1129.31	357.392	23042.3
1129.65	357.048	23304
1130	356.703	23076.2
1130.34	356.359	23633.3
1130.69	356.015	23525.7
1131.03	355.67	23685
1131.37	355.326	23913.9
1131.72	354.982	23947.1
1132.06	354.637	23657.3
1132.41	354.293	23568.8
1132.75	353.949	23782.2
1133.1	353.604	24161.9
1133.44	353.26	25005.1
1133.78	352.916	24521
1134.13	352.571	24490.7
1134.47	352.227	25107.4
1134.82	351.883	24268.2
1135.16	351.538	24175.9
1135.51	351.194	24640.3
1135.85	350.85	25387.9
1136.19	350.505	24822.7
1136.54	350.161	25310.9
1136.88	349.817	26069
1137.23	349.473	25869.7
1137.57	349.128	26100.2
1137.92	348.784	26137
1138.26	348.44	26088.5
1138.6	348.095	26732.5
1138.95	347.751	27195
1139.29	347.407	26506.9
1139.64	347.062	26793
1139.98	346.718	26784.9
1140.33	346.374	27230.2
1140.67	346.029	27075.2
1141.02	345.685	27236.8
1141.36	345.341	27950.4
1141.7	344.996	28320.4
1142.05	344.652	27882.6
1142.39	344.308	27620.2
1142.74	343.963	27781.5
1143.08	343.619	27612.1
1143.43	343.275	28359
1143.77	342.93	28694.2
1144.11	342.586	29119
1144.46	342.242	29170.4
1144.8	341.897	28566.2
1145.15	341.553	28880.3
1145.49	341.209	29073.9
1145.84	340.864	29582.8
1146.18	340.52	29627
1146.52	340.176	28957.6
1146.87	339.832	28498
1147.21	339.487	28509.3
1147.56	339.143	28701.9
1147.9	338.799	28212.7
1148.25	338.454	28639.6
1148.59	338.11	28611.3
1148.93	337.766	28392.3
1149.28	337.421	28476.4
1149.62	337.077	28387.1
1149.97	336.733	28118.8
1150.31	336.388	27864.6
1150.66	336.044	29265.6
1151	335.7	28669.3
1151.34	335.355	27382.7
1151.69	335.011	27647.2
1152.03	334.667	28030
1152.38	334.322	28555.4
1152.72	333.978	28667.1
1153.07	333.634	28197.1
1153.41	333.289	28090.5
1153.75	332.945	27861.2
1154.1	332.601	27318.8
1154.44	332.256	27402.9
1154.79	331.912	26106.1
1155.13	331.568	26740.3
1155.48	331.223	26918.2
1155.82	330.879	27563.8
1156.17	330.535	27094.9
1156.51	330.19	26724.9
1156.85	329.846	26750.6
1157.2	329.502	27132.2
1157.54	329.158	26726.3
1157.89	328.813	26508
1158.23	328.469	26799.7
1158.58	328.125	26957.5
1158.92	327.78	26899.8
1159.26	327.436	26489.6
1159.61	327.092	26825.5
1159.95	326.747	27440.6
1160.3	326.403	26855.9
1160.64	326.059	27842.9
1160.99	325.714	27593.8
1161.33	325.37	28322.7
1161.67	325.026	28847.3
1162.02	324.681	28548.8
1162.36	324.337	28455.8
1162.71	323.993	30243.1
1163.05	323.648	29775.9
1163.4	323.304	30179.2
1163.74	322.96	31044.8
1164.08	322.615	32560.8
1164.43	322.271	32787.5
1164.77	321.927	33865.7
1165.12	321.582	35076.4
1165.46	321.238	35119.4
1165.81	320.894	35245.8
1166.15	320.549	36940.8
1166.49	320.205	37905.3
1166.84	319.861	37533.2
1167.18	319.516	38127.3
1167.53	319.172	37664.6
1167.87	318.828	38529.6
1168.22	318.484	38958
1168.56	318.139	38847.7
1168.91	317.795	40626.1
1169.25	317.451	39723.6
1169.59	317.106	41093.3
1169.94	316.762	42607.1
1170.28	316.418	44184.1
1170.63	316.073	45688.4
1170.97	315.729	46774.4
1171.32	315.385	48213.9
1171.66	315.04	49524
1172	314.696	51141.4
1172.35	314.352	53564
1172.69	314.007	55467
1173.04	313.663	60907.8
1173.38	313.319	68203
1173.73	312.974	80256.9
1174.07	312.63	103340
1174.41	312.286	143908
1174.76	311.941	175373
1175.1	311.597	140168
1175.45	311.253	83977.2
1175.79	310.908	54730.6
1176.14	310.564	42593.8
1176.48	310.22	38301.2
1176.82	309.875	37735.6
1177.17	309.531	39238.8
1177.51	309.187	42978
1177.86	308.842	50094.4
1178.2	308.498	60782.1
1178.55	308.154	82175
1178.89	307.81	128938
1179.23	307.465	237476
1179.58	307.121	298075
1179.92	306.777	147560
1180.27	306.432	53544
1180.61	306.088	16148.8
1180.96	305.744	8495.77
1181.3	305.399	6623.46
1181.65	305.055	5817.22
1181.99	304.711	5152.34
1182.33	304.366	5028.7
1182.68	304.022	4205.03
1183.02	303.678	4455.23
1183.37	303.333	4172.32
1183.71	302.989	3815.63
1184.06	302.645	4052.12
1184.4	302.3	3706.8
1184.74	301.956	3758.81
1185.09	301.612	3841.99
1185.43	301.267	3721.78
1185.78	300.923	4047.79
1186.12	300.579	4230.77
1186.47	300.234	3629.11
1186.81	299.89	3544.65
1187.15	299.546	3586.83
1187.5	299.201	3606.89
1187.84	298.857	3382.4
1188.19	298.513	3559.23
1188.53	298.168	3589.75
1188.88	297.824	3215.35
1189.22	297.48	3470.04
1189.56	297.136	3285.78
1189.91	296.791	3213.5
1190.25	296.447	3362.36
1190.6	296.103	3430.14
1190.94	295.758	3460.92
1191.29	295.414	3376.75
1191.63	295.07	3625.29
1191.97	294.725	3418.22
1192.32	294.381	3352.12
1192.66	294.037	3306.77
1193.01	293.692	3474.7
1193.35	293.348	3128.46
1193.7	293.004	3367.4
1194.04	292.659	3244.67
1194.38	292.315	3239.84
1194.73	291.971	3571.39
1195.07	291.626	3351.03
1195.42	291.282	3416.4
1195.76	290.938	3560.01
1196.11	290.593	3542.35
1196.45	290.249	3511.68
1196.8	289.905	3762.62
1197.14	289.56	3511.48
1197.48	289.216	3460.8
1197.83	288.872	3372.43
1198.17	288.527	3348.17
1198.52	288.183	3301.23
1198.86	287.839	3594.24
1199.21	287.495	3715.68
1199.55	287.15	3638.72
1199.89	286.806	3434.43
1200.24	286.462	3271.48
1200.58	286.117	3461.16
1200.93	285.773	3491.06
1201.27	285.429	3097.1
1201.62	285.084	3677.59
1201.96	284.74	3736.61
1202.3	284.396	3774.33
1202.65	284.051	3444.86
1202.99	283.707	3672.44
1203.34	283.363	3867.99
1203.68	283.018	3537.76
1204.03	282.674	3698.03
1204.37	282.33	3371.08
1204.71	281.985	3295.99
1205.06	281.641	3668.43
1205.4	281.297	3682.21
1205.75	280.952	3499.23
1206.09	280.608	3708.39
1206.44	280.264	3506.77
1206.78	279.919	3636.46
1207.12	279.575	3521.04
1207.47	279.231	3468.01
1207.81	278.886	3368.46
1208.16	278.542	3560.49
1208.5	278.198	3674.07
1208.85	277.853	3502.96
1209.19	277.509	3481.11
1209.54	277.165	3655.67
1209.88	276.821	3554.71
1210.22	276.476	3212.11
1210.57	276.132	3537.97
1210.91	275.788	3680.02
1211.26	275.443	3646.72
1211.6	275.099	3660.22
1211.95	274.755	3692.01
1212.29	274.41	3583.21
1212.63	274.066	3857
1212.98	273.722	3528.09
1213.32	273.377	3548.82
1213.67	273.033	3642.43
1214.01	272.689	3625.48
1214.36	272.344	3540.44
1214.7	272	3531.63
1215.04	271.656	3436.99
1215.39	271.311	3652.06
1215.73	270.967	3777.35
1216.08	270.623	3394.19
1216.42	270.278	3506.95
1216.77	269.934	3793.67
1217.11	269.59	3618.6
1217.45	269.245	3488.98
1217.8	268.901	3502.54
1218.14	268.557	3788.63
1218.49	268.212	3512.39
1218.83	267.868	3684.35
1219.18	267.524	3479.93
1219.52	267.179	3393.47
1219.86	266.835	3811.17
1220.21	266.491	3534.61
1220.55	266.147	3679.16
1220.9	265.802	3625.31
1221.24	265.458	3808.06
1221.59	265.114	3705.4
1221.93	264.769	3613.94
1222.28	264.425	3552.44
1222.62	264.081	3720.6
1222.96	263.736	3534.32
1223.31	263.392	3732.58
1223.65	263.048	3562.71
1224	262.703	3438.75
1224.34	262.359	3899.57
1224.69	262.015	3571.91
1225.03	261.67	3760.83
1225.37	261.326	3853.23
1225.72	260.982	3586.86
1226.06	260.637	3445.61
1226.41	260.293	3583.58
1226.75	259.949	3646.27
1227.1	259.604	3506.96
1227.44	259.26	3760.48
1227.78	258.916	3727.3
1228.13	258.571	3551.04
1228.47	258.227	3647.31
1228.82	257.883	3522.04
1229.16	257.538	3813.99
1229.51	257.194	3758.25
1229.85	256.85	3603.17
1230.19	256.505	3724.66
1230.54	256.161	3757.56
1230.88	255.817	3524.96
1231.23	255.473	3762.19
1231.57	255.128	3721.13
1231.92	254.784	3687.73
1232.26	254.44	3713.61
1232.6	254.095	3520.84
1232.95	253.751	3556.02
1233.29	253.407	3704.89
1233.64	253.062	3826.21
1233.98	252.718	4145.31
1234.33	252.374	3938.71
1234.67	252.029	3793.22
1235.02	251.685	3765.54
1235.36	251.341	3551.21
1235.7	250.996	3812.65
1236.05	250.652	3739.57
1236.39	250.308	3694.37
1236.74	249.963	3861.51
1237.08	249.619	3917.35
1237.43	249.275	3828.88
1237.77	248.93	4123.09
1238.11	248.586	3814.52
1238.46	248.242	3580.61
1238.8	247.897	3905.77
1239.15	247.553	4043.27
1239.49	247.209	4107.12
1239.84	246.864	3690.97
1240.18	246.52	3890.17
1240.52	246.176	4121.48
1240.87	245.832	3668.92
1241.21	245.487	3549.87
1241.56	245.143	3937.09
1241.9	244.799	3528.25
1242.25	244.454	4062.05
1242.59	244.11	4207.4
1242.93	243.766	3901.74
1243.28	243.421	4096.32
1243.62	243.077	3821.94
1243.97	242.733	3937.7
1244.31	242.388	3761.43
1244.66	242.044	3767.93
1245	241.7	3870.77
1245.34	241.355	3968.09
1245.69	241.011	4009.55
1246.03	240.667	3849.35
1246.38	240.322	3750.37
1246.72	239.978	4067.29
1247.07	239.634	3838.31
1247.41	239.289	4047.12
1247.75	238.945	3934.95
1248.1	238.601	3752.94
1248.44	238.256	3828.77
1248.79	237.912	4064.62
1249.13	237.568	3777.28
1249.48	237.223	4111.6
1249.82	236.879	4269.39
1250.17	236.535	4158.65
1250.51	236.19	4324.84
1250.85	235.846	4025.33
1251.2	235.502	3965.61
1251.54	235.158	3779.98
1251.89	234.813	4013.37
1252.23	234.469	3943.18
1252.58	234.125	3750.59
1252.92	233.78	3789.79
1253.26	233.436	3997.74
1253.61	233.092	3802.05
1253.95	232.747	3796.39
1254.3	232.403	3878.04
1254.64	232.059	3689.59
1254.99	231.714	3995.42
1255.33	231.37	3858.99
1255.67	231.026	4006.45
1256.02	230.681	3977.1
1256.36	230.337	3997.89
1256.71	229.993	3976.45
1257.05	229.648	3985.99
1257.4	229.304	3823.03
1257.74	228.96	3872.55
1258.08	228.615	4255.94
1258.43	228.271	4075.15
1258.77	227.927	4228.7
1259.12	227.582	3836.76
1259.46	227.238	4144.61
1259.81	226.894	4173.06
1260.15	226.549	4045.56
1260.49	226.205	4031.63
1260.84	225.861	3783.91
1261.18	225.516	4168.32
1261.53	225.172	3977.98
1261.87	224.828	4210.94
1262.22	224.484	4125.25
1262.56	224.139	4170.15
1262.91	223.795	3796.63
1263.25	223.451	4237.67
1263.59	223.106	4079.55
1263.94	222.762	4095.88
1264.28	222.418	3811.86
1264.63	222.073	4030.3
1264.97	221.729	4007.67
1265.32	221.385	4248.03
1265.66	221.04	4292.39
1266	220.696	4114.37
1266.35	220.352	4159.74
1266.69	220.007	3808.41
1267.04	219.663	4117.13
1267.38	219.319	4251.39
1267.73	218.974	3955.6
1268.07	218.63	3715.66
1268.41	218.286	3840.68
1268.76	217.941	3817.08
1269.1	217.597	4425.63
1269.45	217.253	4309.87
1269.79	216.908	4145.35
1270.14	216.564	4058.69
1270.48	216.22	4160.94
1270.82	215.875	4317.73
1271.17	215.531	4180.51
1271.51	215.187	4353.53
1271.86	214.842	4124.41
1272.2	214.498	3938.78
1272.55	214.154	4276.96
1272.89	213.81	3968.46
1273.23	213.465	4096.8
1273.58	213.121	4066.3
1273.92	212.777	3967.68
1274.27	212.432	3987.04
1274.61	212.088	4139.88
1274.96	211.744	4183.3
1275.3	211.399	4428.91
1275.65	211.055	4134.2
1275.99	210.711	4284.3
1276.33	210.366	4464
1276.68	210.022	4463.07
1277.02	209.678	4287.2
1277.37	209.333	4033.86
1277.71	208.989	4254.16
1278.06	208.645	4297.09
1278.4	208.3	4379.15
1278.74	207.956	4177.06
1279.09	207.612	4472.78
1279.43	207.267	4305.35
1279.78	206.923	4243.17
1280.12	206.579	4247.4
1280.47	206.234	4334.38
1280.81	205.89	4478.95
1281.15	205.546	4484.16
1281.5	205.201	4180.52
1281.84	204.857	4561.11
1282.19	204.513	4362.54
1282.53	204.168	4369.63
1282.88	203.824	4459.75
1283.22	203.48	4359.59
1283.56	203.136	4113.07
1283.91	202.791	4380.09
1284.25	202.447	4514.26
1284.6	202.103	4236.66
1284.94	201.758	4259
1285.29	201.414	4167.85
1285.63	201.07	4264.89
1285.97	200.725	4701.15
1286.32	200.381	4375.64
1286.66	200.037	4395.08
1287.01	199.692	4375.12
1287.35	199.348	4473.3
1287.7	199.004	4428.29
1288.04	198.659	4331.17
1288.38	198.315	4347.93
1288.73	197.971	4297.29
1289.07	197.626	4249.8
1289.42	197.282	4507.53
1289.76	196.938	4426.28
1290.11	196.593	4478.74
1290.45	196.249	4140.46
1290.8	195.905	4538.68
1291.14	195.56	4541.03
1291.48	195.216	4581.66
1291.83	194.872	4595.07
1292.17	194.527	4439.24
1292.52	194.183	4295.83
1292.86	193.839	4520.08
1293.21	193.495	4657.44
1293.55	193.15	4540.64
1293.89	192.806	4534.64
1294.24	192.462	4623
1294.58	192.117	4479.55
1294.93	191.773	4527.09
1295.27	191.429	4661.92
1295.62	191.084	4477.41
1295.96	190.74	4640.87
1296.3	190.396	4678.45
1296.65	190.051	4463.29
1296.99	189.707	4714.95
1297.34	189.363	5128.52
1297.68	189.018	4545.26
1298.03	188.674	4211.98
1298.37	188.33	4426.27
1298.71	187.985	4536.58
1299.06	187.641	4279.83
1299.4	187.297	4611.43
1299.75	186.952	4802.36
1300.09	186.608	4573.53
1300.44	186.264	4307.15
1300.78	185.919	4464.31
1301.12	185.575	4194.02
1301.47	185.231	4761.81
1301.81	184.886	4618.71
1302.16	184.542	4630.92
1302.5	184.198	4344.48
1302.85	183.853	4470.98
1303.19	183.509	4652.91
1303.54	183.165	4695.45
1303.88	182.821	4721.21
1304.22	182.476	4479.96
1304.57	182.132	4618.04
1304.91	181.788	4530.77
1305.26	181.443	4802.78
1305.6	181.099	4721.63
1305.95	180.755	4457.69
1306.29	180.41	4730.81
1306.63	180.066	4590.49
1306.98	179.722	4874.19
1307.32	179.377	4775.43
1307.67	179.033	4672.97
1308.01	178.689	4679.91
1308.36	178.344	4754.14
1308.7	178	4679.74
1309.04	177.656	4527.36
1309.39	177.311	4511.15
1309.73	176.967	4595.28
1310.08	176.623	4656.08
1310.42	176.278	4782.59
1310.77	175.934	4961.92
1311.11	175.59	4880.58
1311.45	175.245	4766.25
1311.8	174.901	4979.2
1312.14	174.557	4738.09
1312.49	174.212	4617.12
1312.83	173.868	4577.21
1313.18	173.524	4521.47
1313.52	173.179	4760.47
1313.86	172.835	4849.95
1314.21	172.491	5013.96
1314.55	172.147	4492.39
1314.9	171.802	4564.94
1315.24	171.458	4824.93
1315.59	171.114	5073.93
1315.93	170.769	4972.8
1316.28	170.425	4791.66
1316.62	170.081	4712.21
1316.96	169.736	4929.96
1317.31	169.392	5162.56
1317.65	169.048	4919.88
1318	168.703	5028.27
1318.34	168.359	4779.04
1318.69	168.015	4758.25
1319.03	167.67	4514.94
1319.37	167.326	4735.44
1319.72	166.982	4795.1
1320.06	166.637	4688.95
1320.41	166.293	4999.24
1320.75	165.949	5006.38
1321.1	165.604	4634.18
1321.44	165.26	4736.01
1321.78	164.916	4598.31
1322.13	164.571	4922.08
1322.47	164.227	5122.89
1322.82	163.883	4889.78
1323.16	163.538	4751.59
1323.51	163.194	5203.08
1323.85	162.85	4935.49
1324.19	162.505	4891.16
1324.54	162.161	4923.62
1324.88	161.817	5133.2
1325.23	161.473	5100.62
1325.57	161.128	4950.75
1325.92	160.784	4785.12
1326.26	160.44	5214.81
1326.6	160.095	5278.19
1326.95	159.751	4697.99
1327.29	159.407	4762.17
1327.64	159.062	4984.01
1327.98	158.718	5082.62
1328.33	158.374	4722.99
1328.67	158.029	4792.62
1329.02	157.685	4818.16
1329.36	157.341	5091.99
1329.7	156.996	5199.21
1330.05	156.652	5099.54
1330.39	156.308	5063.8
1330.74	155.963	4855.34
1331.08	155.619	4983.63
1331.43	155.275	5024.21
1331.77	154.93	4951.89
1332.11	154.586	5099.57
1332.46	154.242	5199.38
1332.8	153.897	5343.55
1333.15	153.553	4941.35
1333.49	153.209	4776.49
1333.84	152.864	5222.52
1334.18	152.52	4925.87
1334.52	152.176	5129.81
1334.87	151.832	5176.62
1335.21	151.487	4860.25
1335.56	151.143	5037.81
1335.9	150.799	5170.25
1336.25	150.454	5190.43
1336.59	150.11	5036.11
1336.93	149.766	5060.55
1337.28	149.421	4969.77
1337.62	149.077	5192.88
1337.97	148.733	5146.64
1338.31	148.388	5205.34
1338.66	148.044	5078.77
1339	147.7	5317.94
1339.34	147.355	4879.62
1339.69	147.011	5435.81
1340.03	146.667	5216.57
1340.38	146.322	5161.06
1340.72	145.978	5098.44
1341.07	145.634	4848.84
1341.41	145.289	4991.5
1341.75	144.945	5198.17
1342.1	144.601	5660.07
1342.44	144.256	5247.16
1342.79	143.912	5281
1343.13	143.568	5347.2
1343.48	143.223	5407.65
1343.82	142.879	5527.69
1344.17	142.535	5290.09
1344.51	142.19	5696.27
1344.85	141.846	5282.85
1345.2	141.502	5407.27
1345.54	141.158	4859.42
1345.89	140.813	5443.18
1346.23	140.469	5189.11
1346.58	140.125	5102.44
1346.92	139.78	5300.81
1347.26	139.436	5360.23
1347.61	139.092	5283.66
1347.95	138.747	5146.6
1348.3	138.403	5312.57
1348.64	138.059	5320.4
1348.99	137.714	5403.43
1349.33	137.37	4986.99
1349.67	137.026	5188.45
1350.02	136.681	5270.32
1350.36	136.337	5589.83
1350.71	135.993	5462.76
1351.05	135.648	5307.9
1351.4	135.304	5341.4
1351.74	134.96	5385.79
1352.08	134.615	5692.78
1352.43	134.271	5037.76
1352.77	133.927	5403.29
1353.12	133.582	5223.13
1353.46	133.238	5400.7
1353.81	132.894	5308.16
1354.15	132.549	5465.47
1354.49	132.205	5317.07
1354.84	131.861	5438.28
1355.18	131.516	5489.56
1355.53	131.172	5487.34
1355.87	130.828	5075.03
1356.22	130.484	5427.37
1356.56	130.139	5773.52
1356.91	129.795	5314.92
1357.25	129.451	5061.26
1357.59	129.106	5323.53
1357.94	128.762	5350.69
1358.28	128.418	5045.86
1358.63	128.073	5438.88
1358.97	127.729	5266.85
1359.32	127.385	5773.31
1359.66	127.04	5457.46
1360	126.696	5378.93
1360.35	126.352	5575.38
1360.69	126.007	5827.53
1361.04	125.663	5339.4
1361.38	125.319	5603.21
1361.73	124.974	5442.5
1362.07	124.63	5667.25
1362.41	124.286	5523.66
1362.76	123.941	5217.92
1363.1	123.597	5271.88
1363.45	123.253	5760.98
1363.79	122.908	5722.33
1364.14	122.564	5694.5
1364.48	122.22	5550.85
1364.82	121.875	5662.48
1365.17	121.531	5565.18
1365.51	121.187	5688.38
1365.86	120.842	5917.97
1366.2	120.498	5893.95
1366.55	120.154	5836.13
1366.89	119.81	5972.51
1367.23	119.465	5873.56
1367.58	119.121	6175.08
1367.92	118.777	6200.81
1368.27	118.432	6013.54
1368.61	118.088	5995.83
1368.96	117.744	5994.09
1369.3	117.399	6054.15
1369.65	117.055	5962.91
1369.99	116.711	6196.83
1370.33	116.366	5835.42
1370.68	116.022	5867.27
1371.02	115.678	6166.66
1371.37	115.333	5884.06
1371.71	114.989	5863.8
1372.06	114.645	5855.88
1372.4	114.3	6160.42
1372.74	113.956	6310.68
1373.09	113.612	5985.04
1373.43	113.267	5961.16
1373.78	112.923	6005.12
1374.12	112.579	6175.08
1374.47	112.234	5930.91
1374.81	111.89	6179.2
1375.15	111.546	5992.59
1375.5	111.201	5686.39
1375.84	110.857	6266.12
1376.19	110.513	6106.34
1376.53	110.168	6076.89
1376.88	109.824	6126.99
1377.22	109.48	5976.92
1377.56	109.136	6099
1377.91	108.791	5879.85
1378.25	108.447	6244.49
1378.6	108.103	6087.66
1378.94	107.758	6065.43
1379.29	107.414	6105.73
1379.63	107.07	6060.91
1379.97	106.725	6011.21
1380.32	106.381	5952.3
1380.66	106.037	5979.47
1381.01	105.692	5986.1
1381.35	105.348	5631.83
1381.7	105.004	5456.23
1382.04	104.659	5967.34
1382.38	104.315	5949.11
1382.73	103.971	6038.08
1383.07	103.626	6355.35
1383.42	103.282	6023.72
1383.76	102.938	5905.01
1384.11	102.593	5786.88
1384.45	102.249	5858.56
1384.8	101.905	6040.77
1385.14	101.56	5780.19
1385.48	101.216	5713.63
1385.83	100.872	5766.09
1386.17	100.527	5707.82
1386.52	100.183	5708.39
1386.86	99.8388	6327.95
1387.21	99.4945	6156.31
1387.55	99.1502	5577.11
1387.89	98.8059	6124.11
1388.24	98.4615	5979.22
1388.58	98.1172	5918.66
1388.93	97.7729	5656.18
1389.27	97.4286	5692.99
1389.62	97.0842	5974.5
1389.96	96.7399	5745.59
1390.3	96.3956	5994.61
1390.65	96.0513	5971.26
1390.99	95.707	6114.69
1391.34	95.3626	5660.25
1391.68	95.0183	6026.93
1392.03	94.674	6101.95
1392.37	94.3297	6277.44
1392.71	93.9853	6152.54
1393.06	93.641	5856.91
1393.4	93.2967	6322.98
1393.75	92.9524	6456.52
1394.09	92.6081	6232.19
1394.44	92.2637	6281.86
1394.78	91.9194	6367.9
1395.12	91.5751	6580.24
1395.47	91.2308	6606.17
1395.81	90.8864	6638.61
1396.16	90.5421	6596.72
1396.5	90.1978	6465.26
1396.85	89.8535	6917.85
1397.19	89.5092	6955.12
1397.54	89.1648	6886.18
1397.88	88.8205	7362.98
1398.22	88.4762	7106.75
1398.57	88.1319	6990.13
1398.91	87.7875	7042.16
1399.26	87.4432	6864.85
1399.6	87.0989	7123.86
1399.95	86.7546	7577.79
1400.29	86.4103	7341.39
1400.63	86.0659	7310.86
1400.98	85.7216	7307.01
1401.32	85.3773	7711.51
1401.67	85.033	7889.58
1402.01	84.6886	8043.07
1402.36	84.3443	8120.44
1402.7	84	8436.75
1403.04	83.6557	8359.65
1403.39	83.3114	8911.82
1403.73	82.967	9135.22
1404.08	82.6227	9122.01
1404.42	82.2784	9803.95
1404.77	81.9341	9819.61
1405.11	81.5897	9699.86
1405.45	81.2454	9728.64
1405.8	80.9011	9909.34
1406.14	80.5568	9551.51
1406.49	80.2125	10069.3
1406.83	79.8681	8747.27
1407.18	79.5238	8640.02
1407.52	79.1795	8130.94
1407.86	78.8352	8279.94
1408.21	78.4908	7933.09
1408.55	78.1465	7519.19
1408.9	77.8022	7053.92
1409.24	77.4579	6694.91
1409.59	77.1136	6816.49
1409.93	76.7692	6740.79
1410.28	76.4249	6644.92
1410.62	76.0806	6333.21
1410.96	75.7363	6459.79
1411.31	75.3919	6449.4
1411.65	75.0476	6621.6
1412	74.7033	6065.43
1412.34	74.359	6175.28
1412.69	74.0147	6202.59
1413.03	73.6703	6186.51
1413.37	73.326	6253.97
1413.72	72.9817	6446.85
1414.06	72.6374	6520.98
1414.41	72.293	6026.54
1414.75	71.9487	6254.02
1415.1	71.6044	6075.1
1415.44	71.2601	5895
1415.78	70.9158	5949.41
1416.13	70.5714	6046.25
1416.47	70.2271	6264.06
1416.82	69.8828	6045.22
1417.16	69.5385	5826.74
1417.51	69.1941	5595.5
1417.85	68.8498	5914.04
1418.19	68.5055	6377.57
1418.54	68.1612	5960.52
1418.88	67.8168	5907.68
1419.23	67.4725	5785.06
1419.57	67.1282	5909.38
1419.92	66.7839	6060.34
1420.26	66.4396	6210.36
1420.6	66.0952	5759.29
1420.95	65.7509	5995.55
1421.29	65.4066	6018.35
1421.64	65.0623	6082.89
1421.98	64.7179	6076.75
1422.33	64.3736	5978.84
1422.67	64.0293	6386.21
1423.02	63.685	6467.71
1423.36	63.3407	7005.09
1423.7	62.9963	6386.16
1424.05	62.652	6683.63
1424.39	62.3077	6310.93
1424.74	61.9634	6559.27
1425.08	61.619	6558.12
1425.43	61.2747	7099.86
1425.77	60.9304	7373.76
1426.11	60.5861	7135.12
1426.46	60.2418	6955.72
1426.8	59.8974	7185.84
1427.15	59.5531	7515.67
1427.49	59.2088	7627.94
1427.84	58.8645	7274.22
1428.18	58.5201	7507.07
1428.52	58.1758	7504.68
1428.87	57.8315	7717.15
1429.21	57.4872	7930.99
1429.56	57.1429	8035.34
1429.9	56.7985	7925.81
1430.25	56.4542	7937.97
1430.59	56.1099	8236.99
1430.93	55.7656	8132.66
1431.28	55.4212	8235.43
1431.62	55.0769	8395.93
1431.97	54.7326	8507.43
1432.31	54.3883	8722.29
1432.66	54.044	8593.58
1433	53.6996	8715.42
1433.34	53.3553	8982.33
1433.69	53.011	9177.42
1434.03	52.6667	9572.58
1434.38	52.3223	10263.9
1434.72	51.978	10531.3
1435.07	51.6337	10840.4
1435.41	51.2894	11211.8
1435.75	50.9451	12102.7
1436.1	50.6007	12206.2
1436.44	50.2564	12835.2
1436.79	49.9121	13418.1
1437.13	49.5678	13426.6
1437.48	49.2234	13816.9
1437.82	48.8791	13913.2
1438.17	48.5348	14254.1
1438.51	48.1905	15458.1
1438.85	47.8462	15611.1
1439.2	47.5018	16859.8
1439.54	47.1575	17098.5
1439.89	46.8132	16441.3
1440.23	46.4689	15927
1440.58	46.1245	13983.2
1440.92	45.7802	13160.4
1441.26	45.4359	11406.4
1441.61	45.0916	9741.93
1441.95	44.7473	8566.05
1442.3	44.4029	7148.55
1442.64	44.0586	6661.18
1442.99	43.7143	5755.56
1443.33	43.37	5509.2
1443.67	43.0256	5040.1
1444.02	42.6813	4753.81
1444.36	42.337	4224.76
1444.71	41.9927	3972.03
1445.05	41.6484	3952.45
1445.4	41.304	3584.2
1445.74	40.9597	2999.07
1446.08	40.6154	3203.98
1446.43	40.2711	3270.74
1446.77	39.9267	3260.32
1447.12	39.5824	3030.28
1447.46	39.2381	2899.62
1447.81	38.8938	2816.55
1448.15	38.5495	2958.11
1448.49	38.2051	2941.09
1448.84	37.8608	2890.7
1449.18	37.5165	2984.41
1449.53	37.1722	3129.84
1449.87	36.8278	2771.84
1450.22	36.4835	2902.89
1450.56	36.1392	2743.24
1450.91	35.7949	2651.29
1451.25	35.4505	2626.86
1451.59	35.1062	2652.29
1451.94	34.7619	2680.96
1452.28	34.4176	2491.08
1452.63	34.0733	2848.6
1452.97	33.7289	2753.17
1453.32	33.3846	2852.76
1453.66	33.0403	2580.63
1454	32.696	2539.36
1454.35	32.3516	2509.5
1454.69	32.0073	2537.4
1455.04	31.663	2484.62
1455.38	31.3187	2501.86
1455.73	30.9744	2260.53
1456.07	30.63	2223.31
1456.41	30.2857	2446.68
1456.76	29.9414	2542.83
1457.1	29.5971	2412.59
1457.45	29.2527	2407.16
1457.79	28.9084	2352.68
1458.14	28.5641	2093.85
1458.48	28.2198	2472.64
1458.82	27.8755	2268.86
1459.17	27.5311	2351.07
1459.51	27.1868	2371.52
1459.86	26.8425	2045.8
1460.2	26.4982	2210.53
1460.55	26.1538	2268.09
1460.89	25.8095	2247.05
1461.23	25.4652	2123.73
1461.58	25.1209	2006.14
1461.92	24.7766	1993.59
1462.27	24.4322	1730.41
1462.61	24.0879	1836.26
1462.96	23.7436	1878.56
1463.3	23.3993	1849.17
1463.65	23.0549	1970.84
1463.99	22.7106	1806.66
1464.33	22.3663	1783.39
1464.68	22.022	1848.08
1465.02	21.6777	1947.72
1465.37	21.3333	1924.88
1465.71	20.989	1970.54
1466.06	20.6447	1967.22
1466.4	20.3004	1988.76
1466.74	19.956	1977.07
1467.09	19.6117	1935.27
1467.43	19.2674	1892.48
1467.78	18.9231	1946.01
1468.12	18.5788	2035.64
1468.47	18.2344	1980.21
1468.81	17.8901	2182.51
1469.15	17.5458	2000.35
1469.5	17.2015	1975.59
1469.84	16.8571	1973.83
1470.19	16.5128	2079.26
1470.53	16.1685	2287.37
1470.88	15.8242	2182.7
1471.22	15.4799	2295.14
1471.56	15.1355	2296.87
1471.91	14.7912	2298.36
1472.25	14.4469	2538.68
1472.6	14.1026	2393.42
1472.94	13.7582	2782.53
1473.29	13.4139	2736.93
1473.63	13.0696	2693.12
1473.97	12.7253	2710.58
1474.32	12.381	2910.29
1474.66	12.0366	2933.33
1475.01	11.6923	3100.81
1475.35	11.348	3222.79
1475.7	11.0037	3450
1476.04	10.6593	3145.71
1476.38	10.315	3420.29
1476.73	9.9707	3080.09
1477.07	9.62637	3369.97
1477.42	9.28205	3731.76
1477.76	8.93773	3346.64
1478.11	8.59341	3394.34
1478.45	8.24908	3585.76
1478.8	7.90476	3613.3
1479.14	7.56044	3834.08
1479.48	7.21612	4065.53
1479.83	6.87179	3979.32
1480.17	6.52747	4520.27
1480.52	6.18315	5412.09
1480.86	5.83883	6057.31
1481.21	5.49451	7424.58
1481.55	5.15018	8426.81
1481.89	4.80586	9461.14
1482.24	4.46154	9801.43
1482.58	4.11722	10163.3
1482.93	3.77289	10704.7
1483.27	3.42857	12026.4
1483.62	3.08425	12961
1483.96	2.73993	14862
1484.3	2.3956	15792.9
1484.65	2.05128	14798
1484.99	1.70696	14384.8
1485.34	1.36264	14906.1
1485.68	1.01832	15979.5
1486.03	0.673993	15807.9
1486.37	0.32967	14188.5
1486.71	-0.014652	8903.43
1487.06	-0.358974	1706.16
1487.4	-0.703297	202.542
1487.75	-1.04762	86.2954
1488.09	-1.39194	63.8247
1488.44	-1.73626	42.2835
1488.78	-2.08059	51.2403
1489.12	-2.42491	23.0408
1489.47	-2.76923	32.3302
1489.81	-3.11355	45.6273
1490.16	-3.45788	25.1281
1490.5	-3.8022	28.538
1490.85	-4.14652	11.2936
1491.19	-4.49084	8.09736
1491.54	-4.83516	25.0947
1491.88	-5.17949	5.98364
1492.22	-5.52381	6.21419
1492.57	-5.86813	29.3414
1492.91	-6.21245	14.1386
1493.26	-6.55678	16.0936
1493.6	-6.9011	24.715
1493.95	-7.24542	0.446264
1494.29	-7.58974	7.81069
1494.63	-7.93407	11.5931
1494.98	-8.27839	8.45955
1495.32	-8.62271	25.8207
1495.67	-8.96703	9.66912
1496.01	-9.31136	0.237863
1496.36	-9.65568	0
1496.7	-10	2.56