D:\Data\Install\2023-11-16\20231116-085401_La scala day--ESp_Cayman_iXPS-ESp_Cayman--1_1-Detector_Region.vms
Survey
	Characteristic Energy eV	1486.7	Acquisition Time s	0.1	Step Size eV	0.344322	No Steps	4096



KE_Survey	BE_Survey	Background_Survey
86.7	1400	355.902
87.0443	1399.66	311.559
87.3886	1399.31	375.47
87.733	1398.97	318.718
88.0773	1398.62	366.061
88.4216	1398.28	365.795
88.7659	1397.93	378.85
89.1103	1397.59	295.852
89.4546	1397.25	390.513
89.7989	1396.9	323.76
90.1432	1396.56	320.129
90.4875	1396.21	363.175
90.8319	1395.87	387.129
91.1762	1395.52	292.543
91.5205	1395.18	399.052
91.8648	1394.84	343.928
92.2092	1394.49	316.143
92.5535	1394.15	266.888
92.8978	1393.8	406.925
93.2421	1393.46	367.267
93.5864	1393.11	323.903
93.9308	1392.77	346.702
94.2751	1392.42	258.175
94.6194	1392.08	326.114
94.9637	1391.74	359.303
95.3081	1391.39	461.898
95.6524	1391.05	358.973
95.9967	1390.7	344.838
96.341	1390.36	327.671
96.6853	1390.01	333.444
97.0297	1389.67	371.147
97.374	1389.33	347.415
97.7183	1388.98	400.032
98.0626	1388.64	430.418
98.407	1388.29	357.721
98.7513	1387.95	356.286
99.0956	1387.6	276.539
99.4399	1387.26	356.171
99.7842	1386.92	342.613
100.129	1386.57	334.651
100.473	1386.23	308.46
100.817	1385.88	357.688
101.162	1385.54	358.537
101.506	1385.19	407.037
101.85	1384.85	404.646
102.195	1384.51	341.259
102.539	1384.16	421.85
102.883	1383.82	394.235
103.227	1383.47	397.84
103.572	1383.13	449.398
103.916	1382.78	443.84
104.26	1382.44	458.514
104.605	1382.1	373.472
104.949	1381.75	443.308
105.293	1381.41	443.949
105.638	1381.06	445.2
105.982	1380.72	466.609
106.326	1380.37	429.744
106.671	1380.03	462.253
107.015	1379.68	390.666
107.359	1379.34	341.971
107.704	1379	401.274
108.048	1378.65	354.048
108.392	1378.31	397.192
108.737	1377.96	470.53
109.081	1377.62	426.444
109.425	1377.27	334.467
109.77	1376.93	493.142
110.114	1376.59	442.039
110.458	1376.24	478.254
110.803	1375.9	503.129
111.147	1375.55	486.905
111.491	1375.21	567.129
111.836	1374.86	383.42
112.18	1374.52	411.329
112.524	1374.18	415.899
112.868	1373.83	414.18
113.213	1373.49	436.728
113.557	1373.14	481.503
113.901	1372.8	509.674
114.246	1372.45	377.528
114.59	1372.11	389.151
114.934	1371.77	439.38
115.279	1371.42	463.077
115.623	1371.08	472.791
115.967	1370.73	403.688
116.312	1370.39	520.947
116.656	1370.04	516.62
117	1369.7	506.559
117.345	1369.36	416.576
117.689	1369.01	449.815
118.033	1368.67	396.022
118.378	1368.32	439.469
118.722	1367.98	445.648
119.066	1367.63	482.358
119.411	1367.29	495.976
119.755	1366.95	385.802
120.099	1366.6	521.944
120.444	1366.26	460.897
120.788	1365.91	418.018
121.132	1365.57	447.58
121.477	1365.22	456.579
121.821	1364.88	486.626
122.165	1364.53	428.715
122.51	1364.19	475.952
122.854	1363.85	491.532
123.198	1363.5	446.897
123.542	1363.16	429.721
123.887	1362.81	450.666
124.231	1362.47	544.121
124.575	1362.12	511.811
124.92	1361.78	601.677
125.264	1361.44	567.899
125.608	1361.09	537.34
125.953	1360.75	509.527
126.297	1360.4	494.835
126.641	1360.06	523.642
126.986	1359.71	535.863
127.33	1359.37	621.806
127.674	1359.03	631.663
128.019	1358.68	619.671
128.363	1358.34	640.458
128.707	1357.99	542.692
129.052	1357.65	512.494
129.396	1357.3	645.256
129.74	1356.96	581.514
130.085	1356.62	606.318
130.429	1356.27	671.203
130.773	1355.93	676.962
131.118	1355.58	646.551
131.462	1355.24	573.003
131.806	1354.89	554.21
132.151	1354.55	630.526
132.495	1354.21	746.607
132.839	1353.86	626.959
133.184	1353.52	571.364
133.528	1353.17	700.849
133.872	1352.83	576.78
134.216	1352.48	533.378
134.561	1352.14	658.602
134.905	1351.79	567.023
135.249	1351.45	649.701
135.594	1351.11	691.676
135.938	1350.76	619.596
136.282	1350.42	701.611
136.627	1350.07	720.042
136.971	1349.73	587.744
137.315	1349.38	735.644
137.66	1349.04	632.502
138.004	1348.7	641.646
138.348	1348.35	762.293
138.693	1348.01	630.179
139.037	1347.66	701.422
139.381	1347.32	701.549
139.726	1346.97	689.672
140.07	1346.63	636.384
140.414	1346.29	756.778
140.759	1345.94	655.159
141.103	1345.6	696.654
141.447	1345.25	675.069
141.792	1344.91	706.888
142.136	1344.56	808.451
142.48	1344.22	820.012
142.825	1343.88	697.556
143.169	1343.53	728.495
143.513	1343.19	666.451
143.858	1342.84	672.563
144.202	1342.5	720.148
144.546	1342.15	713.29
144.89	1341.81	675
145.235	1341.47	816.306
145.579	1341.12	756.551
145.923	1340.78	644.245
146.268	1340.43	643.54
146.612	1340.09	789.095
146.956	1339.74	722.668
147.301	1339.4	540.721
147.645	1339.05	778.927
147.989	1338.71	726.996
148.334	1338.37	798.313
148.678	1338.02	675.753
149.022	1337.68	707.817
149.367	1337.33	718.259
149.711	1336.99	732.447
150.055	1336.64	665.6
150.4	1336.3	688.114
150.744	1335.96	727.459
151.088	1335.61	584.699
151.433	1335.27	620.915
151.777	1334.92	733.142
152.121	1334.58	838.796
152.466	1334.23	793.118
152.81	1333.89	772.403
153.154	1333.55	720.089
153.499	1333.2	747.287
153.843	1332.86	717.489
154.187	1332.51	729.887
154.532	1332.17	780.037
154.876	1331.82	788.596
155.22	1331.48	740.938
155.564	1331.14	887.823
155.909	1330.79	782.132
156.253	1330.45	682.958
156.597	1330.1	855.383
156.942	1329.76	844.138
157.286	1329.41	859.377
157.63	1329.07	825.366
157.975	1328.73	852.5
158.319	1328.38	876.041
158.663	1328.04	720.601
159.008	1327.69	861.216
159.352	1327.35	1013.23
159.696	1327	851.958
160.041	1326.66	966.341
160.385	1326.32	918.057
160.729	1325.97	841.53
161.074	1325.63	869.097
161.418	1325.28	898.758
161.762	1324.94	757.872
162.107	1324.59	903.304
162.451	1324.25	873.594
162.795	1323.9	824.872
163.14	1323.56	719.93
163.484	1323.22	949.519
163.828	1322.87	899.018
164.173	1322.53	969.942
164.517	1322.18	801.613
164.861	1321.84	777.599
165.205	1321.49	902.291
165.55	1321.15	861.905
165.894	1320.81	847.93
166.238	1320.46	836.601
166.583	1320.12	881.41
166.927	1319.77	879.697
167.271	1319.43	884.454
167.616	1319.08	876.8
167.96	1318.74	919.335
168.304	1318.4	933.228
168.649	1318.05	955.481
168.993	1317.71	825.719
169.337	1317.36	832.676
169.682	1317.02	952.418
170.026	1316.67	882.14
170.37	1316.33	936.832
170.715	1315.99	876.725
171.059	1315.64	896.016
171.403	1315.3	844.347
171.748	1314.95	891.372
172.092	1314.61	960.36
172.436	1314.26	1062.97
172.781	1313.92	1067.33
173.125	1313.58	911.413
173.469	1313.23	1139.95
173.814	1312.89	894.622
174.158	1312.54	917.378
174.502	1312.2	865.471
174.847	1311.85	889.568
175.191	1311.51	911.511
175.535	1311.16	840.488
175.879	1310.82	915.577
176.224	1310.48	1063.2
176.568	1310.13	994.394
176.912	1309.79	899.056
177.257	1309.44	929.361
177.601	1309.1	971.264
177.945	1308.75	926.725
178.29	1308.41	967.539
178.634	1308.07	1038.21
178.978	1307.72	1014.2
179.323	1307.38	1050.7
179.667	1307.03	1018.01
180.011	1306.69	1038.92
180.356	1306.34	1076.73
180.7	1306	1087.28
181.044	1305.66	1107.92
181.389	1305.31	1086
181.733	1304.97	1163.77
182.077	1304.62	1117.07
182.422	1304.28	1013.36
182.766	1303.93	1074.91
183.11	1303.59	1083
183.455	1303.25	981.895
183.799	1302.9	1090.69
184.143	1302.56	1076.52
184.488	1302.21	1150.34
184.832	1301.87	1210.75
185.176	1301.52	1028.7
185.521	1301.18	1022.54
185.865	1300.84	1036.34
186.209	1300.49	1051.01
186.553	1300.15	1236.69
186.898	1299.8	1162.48
187.242	1299.46	1144.62
187.586	1299.11	1098.71
187.931	1298.77	1216.05
188.275	1298.42	1044.66
188.619	1298.08	1181.04
188.964	1297.74	1206.47
189.308	1297.39	1118
189.652	1297.05	1119.39
189.997	1296.7	1109.39
190.341	1296.36	1194.86
190.685	1296.01	1052.2
191.03	1295.67	1163.29
191.374	1295.33	1121.86
191.718	1294.98	1031.64
192.063	1294.64	1055.17
192.407	1294.29	1143.54
192.751	1293.95	1250.71
193.096	1293.6	1156.95
193.44	1293.26	1253.88
193.784	1292.92	1195.98
194.129	1292.57	1351
194.473	1292.23	1037.23
194.817	1291.88	1093.93
195.162	1291.54	1025.27
195.506	1291.19	1377.23
195.85	1290.85	1290
196.195	1290.51	1349.88
196.539	1290.16	1327.72
196.883	1289.82	1156.99
197.227	1289.47	1316.3
197.572	1289.13	1402.08
197.916	1288.78	1186.3
198.26	1288.44	1301.9
198.605	1288.1	1391.37
198.949	1287.75	1414.42
199.293	1287.41	1373.57
199.638	1287.06	1379.27
199.982	1286.72	1320.69
200.326	1286.37	1262.69
200.671	1286.03	1280.96
201.015	1285.68	1189.09
201.359	1285.34	1199.03
201.704	1285	1279.56
202.048	1284.65	1340.58
202.392	1284.31	1215.41
202.737	1283.96	1288.68
203.081	1283.62	1362.04
203.425	1283.27	1464.99
203.77	1282.93	1514.6
204.114	1282.59	1519.76
204.458	1282.24	1281.13
204.803	1281.9	1349.25
205.147	1281.55	1565.12
205.491	1281.21	1409.33
205.836	1280.86	1394.66
206.18	1280.52	1482.78
206.524	1280.18	1306.1
206.868	1279.83	1489.78
207.213	1279.49	1452.56
207.557	1279.14	1496.41
207.901	1278.8	1318.77
208.246	1278.45	1371.01
208.59	1278.11	1502.62
208.934	1277.77	1393.97
209.279	1277.42	1383.58
209.623	1277.08	1381.14
209.967	1276.73	1528.48
210.312	1276.39	1479.36
210.656	1276.04	1518.61
211	1275.7	1571.72
211.345	1275.36	1521.23
211.689	1275.01	1422.64
212.033	1274.67	1341.44
212.378	1274.32	1462.29
212.722	1273.98	1367.27
213.066	1273.63	1684.49
213.411	1273.29	1609.54
213.755	1272.95	1490.14
214.099	1272.6	1495.13
214.444	1272.26	1646.89
214.788	1271.91	1661.2
215.132	1271.57	1527.6
215.477	1271.22	1769.75
215.821	1270.88	1485.56
216.165	1270.53	1574.27
216.51	1270.19	1429.12
216.854	1269.85	1617.6
217.198	1269.5	1684.64
217.542	1269.16	1620
217.887	1268.81	1833.8
218.231	1268.47	1694.61
218.575	1268.12	1666.41
218.92	1267.78	1736.47
219.264	1267.44	1682.24
219.608	1267.09	1643.22
219.953	1266.75	1847.84
220.297	1266.4	1699.96
220.641	1266.06	1832.21
220.986	1265.71	1802.36
221.33	1265.37	1787.94
221.674	1265.03	1961.63
222.019	1264.68	1694.72
222.363	1264.34	1727.26
222.707	1263.99	1881.01
223.052	1263.65	1860.2
223.396	1263.3	1864.6
223.74	1262.96	1803.72
224.085	1262.62	1873.85
224.429	1262.27	1851.88
224.773	1261.93	1925.92
225.118	1261.58	1702.35
225.462	1261.24	1960.48
225.806	1260.89	1921.18
226.151	1260.55	1743.11
226.495	1260.21	1669.56
226.839	1259.86	1721.42
227.184	1259.52	1634.72
227.528	1259.17	1751.71
227.872	1258.83	1702.17
228.216	1258.48	1757.69
228.561	1258.14	1746.32
228.905	1257.79	1647.2
229.249	1257.45	1702.52
229.594	1257.11	1738.09
229.938	1256.76	1668.86
230.282	1256.42	1757.92
230.627	1256.07	1844.16
230.971	1255.73	1750.97
231.315	1255.38	1803.51
231.66	1255.04	1805.81
232.004	1254.7	1565.62
232.348	1254.35	1612.33
232.693	1254.01	1563.41
233.037	1253.66	1651.09
233.381	1253.32	1636.14
233.726	1252.97	1667.12
234.07	1252.63	1880.33
234.414	1252.29	1845.25
234.759	1251.94	1663.09
235.103	1251.6	1844.69
235.447	1251.25	1719.25
235.792	1250.91	1621.14
236.136	1250.56	1738.15
236.48	1250.22	1757.86
236.825	1249.88	1711.08
237.169	1249.53	1671
237.513	1249.19	1723.66
237.858	1248.84	1753
238.202	1248.5	1899.38
238.546	1248.15	1848.7
238.89	1247.81	1754.92
239.235	1247.47	1913.31
239.579	1247.12	1910.09
239.923	1246.78	1952.71
240.268	1246.43	1910.09
240.612	1246.09	1881.84
240.956	1245.74	1884.35
241.301	1245.4	1930.48
241.645	1245.05	1964.73
241.989	1244.71	1921.01
242.334	1244.37	1953.8
242.678	1244.02	2048.9
243.022	1243.68	1898.84
243.367	1243.33	2010.11
243.711	1242.99	1894.95
244.055	1242.64	2011.34
244.4	1242.3	2004.18
244.744	1241.96	2075.78
245.088	1241.61	2268.15
245.433	1241.27	2205.59
245.777	1240.92	2033.71
246.121	1240.58	2051.32
246.466	1240.23	2182.3
246.81	1239.89	2323.68
247.154	1239.55	2318.31
247.499	1239.2	2256.26
247.843	1238.86	2312.97
248.187	1238.51	2350.54
248.532	1238.17	1983.47
248.876	1237.82	2528.55
249.22	1237.48	2597.93
249.564	1237.14	2314.54
249.909	1236.79	2797.89
250.253	1236.45	2488.27
250.597	1236.1	2404.39
250.942	1235.76	2595.02
251.286	1235.41	2668.59
251.63	1235.07	2300.04
251.975	1234.73	2413.73
252.319	1234.38	2756.03
252.663	1234.04	2734.96
253.008	1233.69	2598.21
253.352	1233.35	2504.85
253.696	1233	2693.04
254.041	1232.66	2363.41
254.385	1232.32	2469.42
254.729	1231.97	2549.88
255.074	1231.63	2698.84
255.418	1231.28	2858.72
255.762	1230.94	2934.2
256.107	1230.59	2612.95
256.451	1230.25	2785.96
256.795	1229.9	2806.06
257.14	1229.56	2398.4
257.484	1229.22	2728.16
257.828	1228.87	2620.21
258.173	1228.53	2611.78
258.517	1228.18	2521.26
258.861	1227.84	2537.86
259.205	1227.49	2561.57
259.55	1227.15	2557.82
259.894	1226.81	2413.93
260.238	1226.46	2241.45
260.583	1226.12	2400.06
260.927	1225.77	2487.78
261.271	1225.43	2112.03
261.616	1225.08	2324.09
261.96	1224.74	2143.66
262.304	1224.4	2279.1
262.649	1224.05	2120.54
262.993	1223.71	2177.75
263.337	1223.36	1983.03
263.682	1223.02	1923.72
264.026	1222.67	2037.42
264.37	1222.33	2040.13
264.715	1221.99	1869.47
265.059	1221.64	1888.09
265.403	1221.3	1895.98
265.748	1220.95	1919.32
266.092	1220.61	1910.79
266.436	1220.26	1773.74
266.781	1219.92	1942.76
267.125	1219.58	2057.92
267.469	1219.23	1906.27
267.814	1218.89	2018.67
268.158	1218.54	1938.37
268.502	1218.2	1802.41
268.847	1217.85	2019.43
269.191	1217.51	2011.13
269.535	1217.16	2054.77
269.879	1216.82	2106.96
270.224	1216.48	1899.47
270.568	1216.13	1978.74
270.912	1215.79	1949.84
271.257	1215.44	2042.38
271.601	1215.1	1885.49
271.945	1214.75	2013.63
272.29	1214.41	1966.57
272.634	1214.07	1997.6
272.978	1213.72	1887.59
273.323	1213.38	1996.21
273.667	1213.03	1881.23
274.011	1212.69	2027.31
274.356	1212.34	1966.03
274.7	1212	2154.07
275.044	1211.66	1961.58
275.389	1211.31	1933.07
275.733	1210.97	1895.25
276.077	1210.62	1993.27
276.422	1210.28	2086.95
276.766	1209.93	1954.72
277.11	1209.59	2131.67
277.455	1209.25	2060.36
277.799	1208.9	2063.78
278.143	1208.56	1951.6
278.488	1208.21	1991.07
278.832	1207.87	1778.89
279.176	1207.52	2009.77
279.521	1207.18	1938.71
279.865	1206.84	2019.29
280.209	1206.49	2083.55
280.553	1206.15	1919.92
280.898	1205.8	1992.25
281.242	1205.46	2100.91
281.586	1205.11	2042.92
281.931	1204.77	2067.88
282.275	1204.42	2102.5
282.619	1204.08	2110.54
282.964	1203.74	2079.58
283.308	1203.39	2011.8
283.652	1203.05	2082.08
283.997	1202.7	1975.02
284.341	1202.36	2141.04
284.685	1202.01	2103.99
285.03	1201.67	2030.2
285.374	1201.33	2188.04
285.718	1200.98	2047.52
286.063	1200.64	2112.92
286.407	1200.29	2095.2
286.751	1199.95	2132.08
287.096	1199.6	2321.92
287.44	1199.26	2207.89
287.784	1198.92	2225.85
288.129	1198.57	2324.15
288.473	1198.23	2398.42
288.817	1197.88	2380.02
289.162	1197.54	2117.39
289.506	1197.19	2297.18
289.85	1196.85	2467.03
290.195	1196.51	2394.14
290.539	1196.16	2325.09
290.883	1195.82	2302.19
291.227	1195.47	2357.47
291.572	1195.13	2418.31
291.916	1194.78	2389.24
292.26	1194.44	2557.48
292.605	1194.1	2532.03
292.949	1193.75	2242.16
293.293	1193.41	2484.86
293.638	1193.06	2586.26
293.982	1192.72	2627.69
294.326	1192.37	2753.93
294.671	1192.03	2844.31
295.015	1191.68	2801.6
295.359	1191.34	2886.08
295.704	1191	3062.43
296.048	1190.65	2983.68
296.392	1190.31	3042.29
296.737	1189.96	2824.36
297.081	1189.62	2914.42
297.425	1189.27	3740.93
297.77	1188.93	3799.45
298.114	1188.59	3816.68
298.458	1188.24	4104.62
298.803	1187.9	4457.4
299.147	1187.55	4392.77
299.491	1187.21	4897.85
299.836	1186.86	5014.36
300.18	1186.52	5525.42
300.524	1186.18	5416.43
300.868	1185.83	5081.87
301.213	1185.49	5624.39
301.557	1185.14	5792.94
301.901	1184.8	6145.39
302.246	1184.45	5591.25
302.59	1184.11	5474.78
302.934	1183.77	5899.88
303.279	1183.42	5365.91
303.623	1183.08	5560.08
303.967	1182.73	5200.53
304.312	1182.39	4844.19
304.656	1182.04	4769.9
305	1181.7	4470.85
305.345	1181.36	4174.31
305.689	1181.01	3835.69
306.033	1180.67	3626.5
306.378	1180.32	3224.63
306.722	1179.98	2807.71
307.066	1179.63	2727.47
307.411	1179.29	2726.53
307.755	1178.95	2828.17
308.099	1178.6	2531.3
308.444	1178.26	2352.33
308.788	1177.91	2228.91
309.132	1177.57	2258.7
309.477	1177.22	2191.06
309.821	1176.88	2058.81
310.165	1176.53	2379.47
310.51	1176.19	2521.44
310.854	1175.85	2016.29
311.198	1175.5	1935.49
311.542	1175.16	2082.89
311.887	1174.81	2128.84
312.231	1174.47	1946.8
312.575	1174.12	1884.54
312.92	1173.78	1988.09
313.264	1173.44	1892.33
313.608	1173.09	2165.47
313.953	1172.75	1891.78
314.297	1172.4	2058.79
314.641	1172.06	2020.01
314.986	1171.71	1853.53
315.33	1171.37	2003.16
315.674	1171.03	1840.9
316.019	1170.68	1752.45
316.363	1170.34	1947.82
316.707	1169.99	1828.79
317.052	1169.65	1920.88
317.396	1169.3	1904.11
317.74	1168.96	2038.05
318.085	1168.62	2001.36
318.429	1168.27	1992.93
318.773	1167.93	1991.14
319.118	1167.58	2124.26
319.462	1167.24	2053.2
319.806	1166.89	1988.92
320.151	1166.55	1907.8
320.495	1166.21	1719.24
320.839	1165.86	1837.38
321.184	1165.52	1833.7
321.528	1165.17	1838.81
321.872	1164.83	1925.71
322.216	1164.48	1981.88
322.561	1164.14	1973.67
322.905	1163.79	1864.92
323.249	1163.45	1987.06
323.594	1163.11	1957.97
323.938	1162.76	2019.43
324.282	1162.42	1864.66
324.627	1162.07	2064.66
324.971	1161.73	2063.05
325.315	1161.38	2005.19
325.66	1161.04	1947.8
326.004	1160.7	2053.29
326.348	1160.35	1970.37
326.693	1160.01	1946.55
327.037	1159.66	1923.1
327.381	1159.32	2151.54
327.726	1158.97	2168.63
328.07	1158.63	2170.75
328.414	1158.29	2296.71
328.759	1157.94	2187.93
329.103	1157.6	2116.88
329.447	1157.25	2170.83
329.792	1156.91	2180.53
330.136	1156.56	2094.32
330.48	1156.22	2000.46
330.825	1155.88	2008.83
331.169	1155.53	1972.96
331.513	1155.19	1983.8
331.858	1154.84	2030.51
332.202	1154.5	1994.04
332.546	1154.15	2260.73
332.89	1153.81	2011.38
333.235	1153.47	1920.74
333.579	1153.12	2076.02
333.923	1152.78	2392.22
334.268	1152.43	2247.04
334.612	1152.09	2117.47
334.956	1151.74	2102.48
335.301	1151.4	2217.16
335.645	1151.05	2328.97
335.989	1150.71	2282.47
336.334	1150.37	2314.08
336.678	1150.02	1963.43
337.022	1149.68	2179.67
337.367	1149.33	2021.97
337.711	1148.99	2264.08
338.055	1148.64	2108.86
338.4	1148.3	2075.21
338.744	1147.96	2202.23
339.088	1147.61	2201.69
339.433	1147.27	2127.05
339.777	1146.92	2143.51
340.121	1146.58	2376.13
340.466	1146.23	2195.69
340.81	1145.89	2290.14
341.154	1145.55	2259.66
341.499	1145.2	2153.26
341.843	1144.86	2441.98
342.187	1144.51	2070.34
342.532	1144.17	2130.7
342.876	1143.82	2317.5
343.22	1143.48	2322.59
343.564	1143.14	2175.4
343.909	1142.79	2078.27
344.253	1142.45	2277.61
344.597	1142.1	2211.11
344.942	1141.76	2217.26
345.286	1141.41	2313.91
345.63	1141.07	2194.33
345.975	1140.73	2412.11
346.319	1140.38	2385.35
346.663	1140.04	2337.66
347.008	1139.69	2418.84
347.352	1139.35	2450.42
347.696	1139	2334.05
348.041	1138.66	2285.65
348.385	1138.32	2280.39
348.729	1137.97	2431.66
349.074	1137.63	2140.41
349.418	1137.28	2238.09
349.762	1136.94	2302.11
350.107	1136.59	2225.56
350.451	1136.25	2215.27
350.795	1135.9	2049.12
351.14	1135.56	2437.45
351.484	1135.22	2398.47
351.828	1134.87	2205.22
352.173	1134.53	2533.59
352.517	1134.18	2649.62
352.861	1133.84	2513.04
353.205	1133.49	2405.46
353.55	1133.15	2596.31
353.894	1132.81	2508.59
354.238	1132.46	2317.42
354.583	1132.12	2286.41
354.927	1131.77	2542.09
355.271	1131.43	2710.71
355.616	1131.08	2204.84
355.96	1130.74	2223.83
356.304	1130.4	2431.67
356.649	1130.05	2579.37
356.993	1129.71	2532.5
357.337	1129.36	2700.72
357.682	1129.02	2396.51
358.026	1128.67	2410
358.37	1128.33	2541.99
358.715	1127.99	2437.54
359.059	1127.64	2458.29
359.403	1127.3	2627.12
359.748	1126.95	2624.16
360.092	1126.61	2517.76
360.436	1126.26	2502.05
360.781	1125.92	2541.27
361.125	1125.58	2486.77
361.469	1125.23	2351.92
361.814	1124.89	2555.22
362.158	1124.54	2472.47
362.502	1124.2	2589.54
362.847	1123.85	2805
363.191	1123.51	2704.04
363.535	1123.16	2784.8
363.879	1122.82	2668.73
364.224	1122.48	2690.2
364.568	1122.13	2736.46
364.912	1121.79	2660.58
365.257	1121.44	2659.55
365.601	1121.1	2530.83
365.945	1120.75	2486.18
366.29	1120.41	2429.65
366.634	1120.07	2620.19
366.978	1119.72	2603.35
367.323	1119.38	2489.53
367.667	1119.03	2601.49
368.011	1118.69	2591.84
368.356	1118.34	2412.99
368.7	1118	2589.2
369.044	1117.66	2550.21
369.389	1117.31	2665.38
369.733	1116.97	2501.57
370.077	1116.62	2565.49
370.422	1116.28	2728.74
370.766	1115.93	2624.98
371.11	1115.59	2889.13
371.455	1115.25	2738.23
371.799	1114.9	2621.96
372.143	1114.56	2429.25
372.488	1114.21	2542.02
372.832	1113.87	2610.79
373.176	1113.52	2645.23
373.521	1113.18	2703.45
373.865	1112.84	2587.56
374.209	1112.49	2672.61
